Timestamps,Region_1,Region_2,Region_3,Region_4,Region_5,Region_6
0.0,0.0,0.0,0.0,0.0,0.0,0.0
0.1,0.0,0.0,0.0,0.0,0.0,0.0
0.2,0.0,0.0,0.0,0.0,0.0,0.0
0.30000000000000004,0.0,0.0,0.0,0.0,0.0,0.0
0.4,9.495273038293182e-07,5.413889782448874e-07,7.022713514363783e-07,4.10446660653991e-07,8.283265685731367e-07,4.841198760425655e-07
0.5,4.411023040970079e-06,2.4958039005939307e-06,3.2586944813164943e-06,1.8984512207134198e-06,3.860814360171787e-06,2.249258946217191e-06
0.6000000000000001,1.2307738937871923e-05,6.910022338682919e-06,9.08148662330202e-06,5.273360011769885e-06,1.080846727366178e-05,6.276337782663238e-06
0.7000000000000001,2.673686013621773e-05,1.4893762980514065e-05,1.9702900248875435e-05,1.1402656311805265e-05,2.355818149904985e-05,1.3634468457615915e-05
0.8,4.983285617810696e-05,2.7540233369614798e-05,3.6672677686027646e-05,2.115119139205046e-05,4.405452837537851e-05,2.5410555662253168e-05
0.9,8.366938476552322e-05,4.587154611234398e-05,6.148453532532229e-05,3.533830267676802e-05,7.421324790081252e-05,4.265849633980651e-05
1.0,0.0001301906780324464,7.080290367813063e-05,9.552490034491905e-05,5.470859520942985e-05,0.00011585918351687999,6.636344542041042e-05
1.1,0.0001911653709302251,0.00010312083419662915,0.00014003863832370516,7.991310810912776e-05,0.00017068300623054782,9.741762397602801e-05
1.2000000000000002,0.00026815731194084147,0.00014347183572394547,0.00019610768657487765,0.00011149832136787918,0.00024021233239350856,0.0001366049288703495
1.3,0.000362509136834687,0.00019235862882994529,0.00026463942899309745,0.00014990103256967734,0.0003257938233649536,0.00018459221574546947
1.4000000000000001,0.00047533534785291256,0.00025014187067046054,0.00034636236030353333,0.00019544757758036067,0.00042858361647700417,0.0002419256016689384
1.5,0.0006075223924698895,0.00031704569397540916,0.00044182714365023857,0.0002483562166330453,0.0005495440314638508,0.0003090305048180091
1.6,0.0007597338187594259,0.0003931658299175088,0.0005514115964928143,0.0003087417769164659,0.0006894449578504838,0.0003862144268799095
1.7000000000000002,0.0009324190389148433,0.0004784793816750227,0.0006753284765037865,0.00037662185368526885,0.0008488686894709992,0.0004736717095750322
1.8,0.0011258245829654854,0.0005728555525311294,0.0008136351996418346,0.0004519240353408475,0.0010282172515445212,0.0005714896718722384
1.9000000000000001,0.0013400069956198103,0.0006760668149423226,0.0009662448250001663,0.0005344937450922224,0.0012277214829828362,0.0006796556710135022
2.0,0.0015748467385639539,0.0007878001474036344,0.0011329377987661523,0.0006241023909709531,0.0014474513060939859,0.0007980647371944092
2.1,0.0018300626207814698,0.0009076680726873807,0.0013133740715806559,0.0007204555927037611,0.0016873267470881108,0.0009265275145794872
2.2,0.0021052264024288155,0.0010352193121542876,0.0015071052984419213,0.0008232013136190914,0.001947129373052751,0.001064778305980362
2.3000000000000003,0.0023997773115722793,0.001169948931902328,0.0017135869038274688,0.0009319377719822038,0.002226513890519011,0.0012124830688327018
2.4000000000000004,0.0027130362841613054,0.0013113079020143205,0.001932189851559624,0.001046221041830671,0.002525019712342266,0.0013692472491597639
2.5,0.0030442197915484946,0.0014587120238869393,0.0021622120030970558,0.0011655722809995406,0.002842082347635404,0.001534623370651869
2.6,0.0033924531600094702,0.001611550204964909,0.0024028889817315807,0.0012894845450746714,0.0031770445064148553,0.001708118319405628
2.7,0.0037567833175541463,0.0017691920781188557,0.002653404486875606,0.0014174291625075387,0.003529166839944055,0.0018892002833960466
2.8000000000000003,0.004136190925589383,0.0019309949751041095,0.002912900022657681,0.0015488616583901322,0.0038976382599353,0.002077305319742557
2.9000000000000004,0.004529601869516022,0.002096310271884306,0.003180484020466079,0.0016832272237024232,0.00428158579700449,0.002271843533635723
3.0,0.004935898094682096,0.002264489129172248,0.003455240347030801,0.0018199657339270316,0.004680083972286883,0.0024722048611837168
3.1,0.005353927783319459,0.0024348876550676453,0.0037362361988631586,0.0019585163262577383,0.005092163666714565,0.0026777644549267473
3.2,0.005782514874436323,0.0026068715184204565,0.004022529390571746,0.0020983215483610096,0.005516820480336061,0.002887887675513466
3.3000000000000003,0.006220467933738791,0.002779820042529151,0.004313175049971027,0.002238831094528712,0.005953022580539274,0.0031019346968344415
3.4000000000000004,0.006666588383725236,0.002953129808598984,0.004607231736393846,0.0023795051467602447,0.006399718042481274,0.00331926473441658
3.5,0.007119678106917174,0.0031262177981058324,0.004903767001603999,0.0025198173396671617,0.006855841688912118,0.003539239908985337
3.6,0.007578546437141827,0.003298524102501515,0.005201862414713917,0.0026592573688443877,0.007320321439419903,0.0037612287585308104
3.7,0.008042016555215163,0.003469514227779959,0.005500618073856535,0.0027973332626950653,0.00779208418124281,0.003984609413173869
3.8000000000000003,0.008508931306536675,0.0036386810204529453,0.005799156628246378,0.0029335733377618355,0.008270061175413434,0.004208772447761116
3.9000000000000004,0.008978158459000385,0.0038055462404643957,0.006096626834736028,0.003067527857439563,0.008753193013173621,0.004433123427464196
4.0,0.009448595420426366,0.003969661805604615,0.0063922066732003645,0.0031987704136282762,0.009240434138492744,0.004657085161825789
4.1000000000000005,0.009919173435420533,0.004130610731066329,0.00668510604507857,0.003326899050444557,0.009730756953171186,0.004880099682708164
4.2,0.010388861282285474,0.0042880077869665864,0.0069745690793105285,0.0034515371486295663,0.010223155521540024,0.005101629961538101
4.3,0.010856668490702118,0.004441499895578756,0.007259876069239513,0.0035723340884933332,0.010716648891689246,0.005321161380827805
4.4,0.011321648101579028,0.0045907662893601734,0.00754034506378257,0.003688965708687057,0.0112102840504698,0.005538202974769317
4.5,0.011782898991117256,0.004735518450260243,0.007815333135851017,0.003801134577535824,0.011703138529777139,0.005752288453494845
4.6000000000000005,0.012239567781137708,0.00487549984988491,0.008084237350163309,0.003908570092820196,0.012194322681304109,0.005962977025059758
4.7,0.012690850358117416,0.0050104855094817114,0.008346495452093186,0.004011028425271803,0.012682981637014567,0.006169854028905119
4.800000000000001,0.01313599302316976,0.00514028139780171,0.008601586298133835,0.004108292320116484,0.01316829697184266,0.006372531393798507
4.9,0.013574293295750743,0.005264723684477479,0.008849030048392307,0.004200170770611098,0.013649488085793044,0.006570647933332965
5.0,0.014005100393521264,0.00538367786566172,0.009088388140332245,0.0042864985765493045,0.014125813321499703,0.006763869491115667
5.1000000000000005,0.01442781541078502,0.005497037778019621,0.00931926306248588,0.004367135800170317,0.01459657083359165,0.0069518889476679275
5.2,0.014841891217850654,0.005604724516518122,0.00954129794600325,0.00444196713117304,0.015061099225427458,0.007134426100333089
5.300000000000001,0.015246832102709629,0.005706685270331097,0.009754175990808082,0.004510901171681987,0.01551877796841583,0.007311227427039084
5.4,0.01564087760064493,0.005802138968092282,0.009956569877363142,0.0045732582522685404,0.015967851278426193,0.007481383150312459
5.5,0.016021590811883483,0.005889937139463968,0.010146615084265623,0.004628054206369248,0.016405935251028018,0.0076436304478360514
5.6000000000000005,0.01638624933364087,0.005968799204989946,0.010322223972696193,0.004674187325623923,0.016830357805242824,0.00779655525426994
5.7,0.016732100927871845,0.006037462247298597,0.010481290810544839,0.004710559139557695,0.017238383811076816,0.007938724554902927
5.800000000000001,0.017056526666698938,0.00609477279399771,0.010621822251462465,0.004736150101963375,0.017627361451201994,0.008068771132773711
5.9,0.017357140956503113,0.006139739504751987,0.010742017013569962,0.004750064677435431,0.017994814636181536,0.00818544588041133
6.0,0.017631848661691294,0.006171559709890571,0.010840311089190653,0.004751555783413261,0.018338498561155034,0.008287648068100898
6.1000000000000005,0.01787887323958226,0.006189628664981266,0.01091539971758236,0.0047400354217868096,0.018656430172732635,0.008374440713870617
6.2,0.018096765457258808,0.006193537581685379,0.010966243841254126,0.004715076186210326,0.01894690165128796,0.00844505596548429
6.300000000000001,0.018284399275595085,0.006183064570647906,0.010992066349237174,0.004676406854146285,0.01920848249116607,0.008498893867156819
6.4,0.01844095942987004,0.00615816131061297,0.01099234174557067,0.004623904256472653,0.01944001402291594,0.008535516825378573
6.5,0.018565923821471705,0.0061189373512181445,0.010966781735464826,0.004557582919295041,0.019640599024824672,0.008554641360576237
6.6000000000000005,0.018659042859116664,0.006065643333792904,0.01091531843195448,0.004477583492328287,0.019809588245633582,0.008556128230306112
6.7,0.018720317214218962,0.005998653986311622,0.010838086341875514,0.004384160648081213,0.01994656509114637,0.008539971664814485
6.800000000000001,0.01874997498943045,0.005918451454449818,0.01073540391536399,0.004277670909322115,0.020051329334906772,0.008506288218478973
6.9,0.01874844897675965,0.0058256093283522905,0.010607755184788984,0.004158560706480387,0.02012388044193805,0.008455305577127158
7.0,0.01871635445776192,0.0057207775856572265,0.010455771841007124,0.0040273548596842495,0.02016440090707138,0.008387351548565515
7.1000000000000005,0.018654467842209997,0.005604668575676736,0.010280215971850895,0.003884645606645128,0.020173239879337782,0.00830284338582423
7.2,0.018563706334101402,0.005478044104905667,0.010081963604082762,0.003731082247930863,0.020150897254837333,0.008202277539606225
7.300000000000001,0.01844510873700251,0.00534170363896304,0.009861989131024651,0.003567361446454495,0.020098008357153776,0.008086219898991403
7.4,0.018299817457820177,0.005196473606179505,0.009621350668204057,0.0033942181948449016,0.020015329281022818,0.007955296554061846
7.5,0.01812906173108374,0.005043197768225372,0.009361176352053534,0.003212417448765379,0.0199037229447196,0.007810185096628147
7.6000000000000005,0.017934142059683453,0.0048827286102272995,0.00908265157784761,0.0030227464137132566,0.01976414587522114,0.007651606463059071
7.7,0.017716415849624637,0.004715919694739694,0.00878700716011593,0.002826007465823552,0.019597635734972307,0.007480317314741411
7.800000000000001,0.01747728420407895,0.0045436189196277335,0.008475508390430599,0.002623011682915481,0.01940529958869284,0.007297102946101015
7.9,0.017218179833397074,0.004366662617849962,0.00814944496173718,0.002414572959266711,0.019188302901033252,0.007102770706156788
8.0,0.016940556031948523,0.004185870436740257,0.007810121724634278,0.002201502675984562,0.01894785925035153,0.006898143916851789
8.1,0.016645876669846953,0.004002040935726304,0.007458850239397796,0.001984604898472337,0.018685220740642813,0.006684056270021983
8.200000000000001,0.016335607145068314,0.0038159478428368694,0.007096941085858382,0.0017646720720368462,0.018401669090389657,0.006461346683445849
8.3,0.01601120624074416,0.0036283369127454376,0.006725696892814249,0.001542481186945137,0.018098507375202237,0.0062308545957909635
8.4,0.015674118833140488,0.0034399233322172642,0.006346406049280946,0.0013187903850842473,0.017777052400415216,0.005993415680331074
8.5,0.015325769395967713,0.003251389621452971,0.005960337059735971,0.0010943359807357774,0.01743862767828553,0.005749857956855228
8.6,0.014967556248433905,0.003063383983255326,0.005568733506692063,0.0008698298690862818,0.017084556984452742,0.005500998281629039
8.700000000000001,0.014600846495729982,0.0028765190549239032,0.00517280958455935,0.0006459572968448098,0.016716158467798482,0.005247639195360691
8.8,0.014226971612674218,0.0026913710210420953,0.00477374616989736,0.00042337497036565606,0.016334739287898723,0.0049905661095393595
8.9,0.013847223623426936,0.002508479048493152,0.004372687394420682,0.0002027094777449216,0.01594159075456408,0.004730544812050838
9.0,0.013462851832144067,0.002328345007912182,0.00397073768814,-1.5443997741917438e-05,0.015537983944060304,0.004468319273367271
9.1,0.013075060061713085,0.002151433448676039,0.0035689592612477743,-0.00023052269449424785,0.015125165766957242,0.004204609735133186
9.200000000000001,0.012685004360038356,0.001978171797295419,0.00316836999464886,-0.0004419970403498863,0.014704355463065158,0.003940111063565993
9.3,0.012293791135652692,0.0018089507516766176,0.0027699417103648795,-0.0006493711908590068,0.014276741499567971,0.003675491350746482
9.4,0.011902475686700284,0.0016441248461536643,0.0023745987942535756,-0.0008521833567408427,0.013843478848965253,0.0034113907474244915
9.5,0.011512061089527766,0.0014840131644474454,0.001983217144763089,-0.0010500059382439577,0.013405686624154024,0.003148420511624827
9.600000000000001,0.01112349741524739,0.001328900179802275,0.0015966234226476171,-0.0012424454832383786,0.012964446048642811,0.0028871622579445984
9.700000000000001,0.010737681244721244,0.00117903670350662,0.00121559457779761,-0.001429142484976114,0.012520798740634024,0.002628167393072545
9.8,0.010355455454398471,0.001034640924798101,0.0008408576305252052,-0.0016097710346014576,0.01207574529047723,0.002371956723696049
9.9,0.009977609247634793,0.0008958995269771321,0.0004730896857861519,-0.0017840383426752473,0.011630244111472182,0.002119020223409841
10.0,0.009604878407642946,0.0007629688658959217,0.00011291815996931441,-0.0019516841431647639,0.011185210545078598,0.001869816946033523
10.100000000000001,0.009237945749667608,0.000635976198221365,-0.00023907879900133793,-0.0021124799925685785,0.010741516202649605,0.0016247750735118441
10.200000000000001,0.008877441752318051,0.0005150209485604368,-0.000582371716512576,-0.0022662284761412197,0.010299988525841358,0.001384292086715691
10.3,0.00852394534917332,0.0004001760054848242,-0.0009164790382753294,-0.002412762332457088,0.009861410548966833,0.0011487350482420754
10.4,0.008177984862801907,0.0002914890373090237,-0.0012409662357273266,-0.0025519435068592743,0.009426520847718743,0.0009184409871024463
10.5,0.007840039065378423,0.0001889838198461249,-0.001555444785131835,-0.00268366214369916,0.00899601365875154,0.0006937173753200463
10.600000000000001,0.007510538350852079,9.266156895103162e-05,-0.0018595710347780628,-0.002807835526645198,0.00857053915576546,0.000474842687230394
10.700000000000001,0.007189866005548436,2.502271893514383e-06,-0.002153044973787293,-0.002924406975716156,0.008150703867807953,0.00026206703240101974
10.8,0.006878359563331705,-8.15339887528581e-05,-0.002435608915266347,-0.0030333447091563065,0.007737071227766408,5.5612854504102346e-05
10.9,0.006576312234694316,-0.00015950572305399095,-0.002707046105666295,-0.0031346406776638536,0.00733016223779454,-0.00014432431219694913
11.0,0.0062839743986930945,-0.00023148873806578572,-0.002967179271492339,-0.0032283093779827345,0.006930456240260582,-0.0003375750359210274
11.100000000000001,0.006001555147805048,-0.0002975748624548429,-0.003215869113773788,-0.003314386652354423,0.006538391783155826,-0.0005239951369148533
11.200000000000001,0.005729223876620929,-0.00035787069473699877,-0.0034530127600067486,-0.0033929284798397876,0.006154367569453566,-0.0007034648000016834
11.3,0.005467111905912234,-0.0004124963781077854,-0.003678542182620357,-0.0034640097650575196,0.005778743480597554,-0.0008758876562057438
11.4,0.005215314134265598,-0.0004615844044475547,-0.0038924225923854167,-0.0035277231294424576,0.005411841664869472,-0.0010411898391399464
11.5,0.0049738907102870105,-0.0005052784496133658,-0.004094650814573877,-0.0035841777096992213,0.005053947681784576,-0.0011993190215640781
11.600000000000001,0.004742868718831933,-0.0005437322418717248,-0.004285253655105758,-0.003633497967724684,0.004705311694266314,-0.0013502434371208214
11.700000000000001,0.004522243874974675,-0.0005771084651848223,-0.00446428626338049,-0.0036758225158920184,0.004366149701035663,-0.0014939508918108669
11.8,0.004311982220045852,-0.0006055776987121887,-0.004631830497963535,-0.003711302961220049,0.004036644802032277,-0.0016304477695058574
11.9,0.004112021814486985,-0.0006293173936589724,-0.004787993300802845,-0.0037401027716022993,0.003716948490152851,-0.0017597580354841804
12.0,0.00392227442287484,-0.0006485108882682456,-0.0049329050850514386,-0.0037623961668648074,0.003407181963126481,-0.0018819222416235945
12.100000000000001,0.0037426271873528044,-0.000663346461266814,-0.005066718140832482,-0.003778367036936948,0.0031074374499396175,-0.0019969965365012254
12.200000000000001,0.003572944283843816,-0.0006740164251769258,-0.00518960506435258,-0.0037882078900059054,0.0028177795453809954,-0.0021050516841213
12.3,0.003413068557260441,-0.0006807162598372844,-0.005301757214205266,-0.003792118832551108,0.002538246547779033,-0.00220617209406138
12.4,0.0032628231329770692,-0.0006836437858992023,-0.0054033831977427895,-0.0037903065825485973,0.002268851795930239,-0.0023004548652513323
12.5,0.0031220130013047084,-0.0006829983784081053,-0.005494707390641805,-0.003782983517250621,0.0020095850009694003,-0.0023880088457245295
12.600000000000001,0.0029904265714745734,-0.000678980220740986,-0.005575968492865569,-0.0037703667569582142,0.0017604135688243118,-0.002468953710719184
12.700000000000001,0.0028678371923666715,-0.0006717895987717291,-0.005647418123482571,-0.0037526772857339463,0.0015212839096630532,-0.0025434190610254255
12.8,0.002754004637491523,-0.0006616262350113957,-0.005709319456460903,-0.0037301391097767415,0.0012921227310684169,-0.0026115435432575895
12.9,0.0026486765519714165,-0.000648688662369497,-0.005761945899231668,-0.0037029784539662257,0.0010728383120263288,-0.002673473993500893
13.0,0.002551589859241018,-0.0006331736372343698,-0.005805579815740454,-0.00367142299702232,0.000863321754877511,-0.002729364605725235
13.100000000000001,0.0024624721255496473,-0.0006152755913974102,-0.005840511295326848,-0.003635701145485977,0.000663448212623024,-0.002779376126195498
13.200000000000001,0.0023810428803441586,-0.0005951861223876714,-0.00586703696863926,-0.0035960413466360774,0.0004730780895976765,-0.002823675074720584
13.3,0.002307014891442073,-0.0005730935213447486,-0.005885458871138963,-0.0035526714400638125,0.0002920582128057755,-0.0028624329939943636
13.4,0.002240095392780523,-0.0005491823382540401,-0.005896083355405084,-0.0035058180480074786,0.00012022297352928671,-0.002895825726891905
13.5,0.0021799872636719384,-0.000523632983739678,-0.0058992200526401676,-0.0034557060040654123,-4.260456253125675e-05,-0.0029240327223819065
13.600000000000001,0.0021263901600229724,-0.0004966213657863643,-0.0058951808825671685,-0.003402557819196167,-0.0001966115804771691,-0.0029472363719754324
13.700000000000001,0.0020790015937267063,-0.0004683185622692671,-0.0058842791139052265,-0.0033465931856814625,-0.0003419944729435404,-0.002965621374023113
13.8,0.002037517961998366,-0.00043889052697674457,-0.005866828473585317,-0.0032880285173537303,-0.0004789578334739312,-0.002979374128515766
13.9,0.0020016355258904097,-0.0004084978283630814,-0.005843142304716187,-0.003227076525495487,-0.0006077134868334358,-0.0029886821621416568
14.0,0.001971051337619611,-0.0003772954200860816,-0.005813532772956867,-0.0031639458296164992,-0.0007284795568353301,-0.0029937335835183714
14.100000000000001,0.0019454641158169026,-0.0003454324427332649,-0.005778310121170763,-0.003098840602452755,-0.0008414795710911461,-0.0029947165678269696
14.200000000000001,0.0019245750685873146,-0.00031305205573411445,-0.005737781971794054,-0.0030319602482801965,-0.0009469416028690903,-0.002991818870541097
14.3,0.0019080886649229683,-0.0002802912981327953,-0.005692252675979114,-0.0029634991134320234,-0.0010450974508609424,-0.0029852273703075546
14.4,0.0018957133547561798,-0.00024728097710495874,-0.005642022708671794,-0.002893646227982186,-0.0011361818569441422,-0.0029751276406086266
14.5,0.0018871622378242253,-0.000214145583221958,-0.0055873881087360805,-0.002822585077547909,-0.0012204317616183109,-0.0029617035495985776
14.600000000000001,0.0018821536819651475,-0.00018100323125927296,-0.005528639963101935,-0.0027504934041004433,-0.0012980855970351852,-0.002945136887653638
14.700000000000001,0.0018804118916468434,-0.00014796562529715705,-0.005466063933828358,-0.0026775430346421968,-0.0013693826174991613,-0.0029256070221541893
14.8,0.0018816674272872599,-0.0001151380470575135,-0.005399939826982926,-0.0026038997366339533,-0.0014345622668026738,-0.0029032905787198344
14.9,0.0018856576770065626,-8.261936585120879e-05,-0.0053305412019744765,-0.002529723098919616,-0.0014938635827796204,-0.002878361148727659
15.0,0.001892127280632794,-5.050206961720785e-05,-0.005258135020338069,-0.0024551664371303666,-0.0015475246371776182,-0.0028509890216001474
15.100000000000001,0.001900828507893999,-1.8872315356536513e-05,-0.005182981332498773,-0.002380376722291486,-0.0015957820111653692,-0.0028213409416747754
15.200000000000001,0.001911521591961799,1.2190002227941209e-05,-0.0051053330011888685,-0.0023054945314646916,-0.0016388703057473894,-0.002789579888854018
15.3,0.0019239750194568958,4.261116499440375e-05,-0.005025435460199531,-0.0022306540192835026,-0.0016770216861268204,-0.0027558648821087253
15.4,0.0019379657783790286,7.23235297904506e-05,-0.004943526507056453,-0.002155982909206405,-0.0017104654593259024,-0.0027203508050794097
15.5,0.0019532795654207792,0.0001012654122574381,-0.004859836128209814,-0.0020816025033342377,-0.001739427684240914,-0.0026831882529523106
15.600000000000001,0.001969710954164455,0.00012938095719571948,-0.004774586355322938,-0.002007627709656348,-0.0017641308132350267,-0.0026445233997560136
15.700000000000001,0.00198706352571461,0.0001566199966596729,-0.004687991151236238,-0.0019341670856055924,-0.0017847933643378546,-0.002604497885216717
15.8,0.002005149963368487,0.0001829378969344583,-0.00460025632418177,-0.001861322896822671,-0.0018016296230896694,-0.0025632487203049474
15.9,0.0020237921130481585,0.00020829539557232796,-0.0045115794688141,-0.0017891911900443588,-0.0018148493731294107,-0.0025209082106559325
16.0,0.0020428210112822874,0.00023265842965852502,-0.004422149932627367,-0.0017178618790527661,-0.0018246576546391998,-0.0024776038970662777
16.1,0.0020620768823180324,0.000255997956315591,-0.004332148806365807,-0.0016474188426639517,-0.001831254549498375,-0.0024334585121296303
16.2,0.0020814091060775827,0.00027828976649459244,-0.004241748937035207,-0.0015779400337530146,-0.0018348349921103878,-0.0023885899521536493
16.3,0.002100676158684859,0.000299514293070728,-0.004151114962140598,-0.0015094975983413845,-0.0018355886048587147,-0.002343111263510101
16.400000000000002,0.002119745527290617,0.00031965641422642744,-0.004060403363795089,-0.001442158003801099,-0.0018336995571423902,-0.0022971306425800587
16.5,0.002138493600920499,0.0003387052530690909,-0.003969762541369266,-0.001375982175262736,-0.0018293464469425155,-0.0022507514484705125
16.6,0.0021568055391928387,0.00035665397446800695,-0.003879332901361411,-0.0013110256393355365,-0.0018227022040073276,-0.002204072227771892
16.7,0.0021745751205872726,0.00037349957996755885,-0.0037892469632138034,-0.001247338674291401,-0.0018139340135966385,-0.0021571867505516653
16.8,0.0021917045718743283,0.00038924270156544374,-0.003699629479836271,-0.0011849664658998848,-0.0018032032596839481,-0.002110184056767906
16.900000000000002,0.002208104380350247,0.0004038873951387715,-0.0036105975716243612,-0.0011239492681311058,-0.0017906654865862755,-0.002063148512341784
17.0,0.0022236930904877142,0.0004174409342576005,-0.003522260872793363,-0.0010643225679773814,-0.0017764703780031802,-0.00201615987414741
17.1,0.0022383970865754036,0.0004299136050810928,-0.0034347216888852743,-0.001006117253677794,-0.001760761752459404,-0.0019692933631972834
17.2,0.002252150362885249,0.00044131850299159874,-0.003348075164342902,-0.0009493597856645547,-0.0017436775741680765,-0.001922619745326722
17.3,0.0022648942829035677,0.000451671331601624,-0.003262409459079979,-0.0008940723695815747,-0.001725349978384182,-0.0018762054187230605
17.400000000000002,0.0022765773290340722,0.00046099020467763507,-0.0031778059330203976,-0.000840273130762803,-0.0017059053102693646,-0.0018301125076278756
17.5,0.00228715484415264,0.00046929545149427534,-0.00309433933761821,-0.0007879762895904243,-0.0016854641763295447,-0.001784398961575111
17.6,0.0022965887663478203,0.0004766094260937198,-0.0030120780134093306,-0.000737192337186045,-0.001664141507514166,-0.001739118659554572
17.7,0.0023048473581257205,0.00048295632088171875,-0.0029310840926867095,-0.0006879282109205305,-0.0016420466330896283,-0.0016943215185143941
17.8,0.0023119049313005007,0.0004883619849496938,-0.002851413706431477,-0.0006401874692606132,-0.0016192833644241272,-0.0016500536056398415
17.900000000000002,0.002317741568826733,0.0004928537475243955,-0.0027731171946054757,-0.00059397046546221,-0.0015959500877863247,-0.0016063572538349577
18.0,0.0023223428449641033,0.0004964602470152873,-0.002696239318810347,-0.0005492745195700992,-0.0015721398651650524,-0.0015632711797870416
18.1,0.0023256995443433235,0.0004992112656501325,-0.002620819476949343,-0.000506094088559405,-0.001547940542707553,-0.0015208306043495124
18.2,0.0023278073804697506,0.0005011375696776084,-0.0025468919195500445,-0.00046442093447023936,-0.0015234348663819162,-0.001479067374988291
18.3,0.0023286667151322716,0.0005022707556548378,-0.00247448596664467,-0.0004242442899452828,-0.0014987006036899864,-0.0014380100895844182
18.400000000000002,0.0023282822797402974,0.0005026431030714423,-0.002403626224451503,-0.00038555102079105864,-0.0014738106705955074,-0.0013976842210950801
18.5,0.002326662899599498,0.0005022874335528032,-0.0023343328010987756,-0.00034832578518832324,-0.001448833262824137,-0.0013581122425786174
18.6,0.002323821221508817,0.0005012369765244108,-0.002266621521146259,-0.0003125511894815209,-0.0014238319911865204,-0.001319313752386134
18.7,0.0023197734453181385,0.000499525241376793,-0.0022005041384437324,-0.00027820794035259244,-0.0013988660204045233,-0.0012813055992253913
18.8,0.0023145390600702934,0.0004971858961668619,-0.0021359885468592017,-0.000245274993183069,-0.001373990210837097,-0.0012441020067585297
18.900000000000002,0.00230814058544857,0.0004942526529525071,-0.00207307898832112,-0.00021372969635954496,-0.0013492552624383709,-0.001207714697362799
19.0,0.0023006033191522576,0.0004907591598037145,-0.002011776257688864,-0.0001835479313215066,-0.0013247078603372498,-0.0011721530147225847
19.1,0.0022919550905698715,0.00048673889939443026,-0.0019520779038922618,-0.00015470424811047645,-0.0013003908220177974,-0.0011374240452711446
19.200000000000003,0.00228222602105821,0.00048222509405366327,-0.0018939784282324432,-0.00012717199702817877,-0.0012763432441258546,-0.001103532737356972
19.3,0.002271448291352098,0.0004772506172888523,-0.001837469477595908,-0.00010092345517185948,-0.0012526006508992863,-0.0010704820193509076
19.400000000000002,0.0022596559163550706,0.00047184791164325574,-0.0017825400336614475,-7.592994857195186e-05,-0.0012291951420383518,-0.0010382729154450384
19.5,0.00224688452761878,0.0004660489127929326,-0.0017291765975249044,-5.216196968150202e-05,-0.0012061555400382238,-0.0010069046592038995
19.6,0.0022331711637431674,0.0004598849797544999,-0.0016773633696875992,-2.958929027367754e-05,-0.0011835075364479235,-0.0009763748046009797
19.700000000000003,0.002218554068915906,0.00045338683107774266,-0.0016270824246521066,-8.181069392688222e-06,-0.0011612738373616253,-0.0009466793347698417
19.8,0.0022030724996888675,0.00044658448683780594,-0.0015783138809427155,1.2094043074741881e-05,-0.0011394743067036585,-0.0009178127676747911
19.900000000000002,0.0021867665401549244,0.0004395072162908545,-0.0015310360655705101,3.126780769666876e-05,-0.0011181261079681688,-0.0008897682591460474
20.0,0.0021696769256341923,0.0004321834910364101,-0.001485225672931695,4.9372301580438385e-05,-0.0010972438440525496,-0.0008625377031196527
20.1,0.002151844874927613,0.0004246409435103605,-0.0014408579180536355,6.643982920781375e-05,-0.0010768396949370831,-0.0008361118289908764
20.200000000000003,0.002133311931162401,0.00041690633062454297,-0.0013979066841234313,8.250283797357889e-05,-0.001056923552983136,-0.0008104802960023264
20.3,0.002114119811181621,0.000409005502338534,-0.0013563446643687436,9.75938383033134e-05,-0.0010375031554805637,-0.0007856317845062226
20.400000000000002,0.0020943102633595788,0.0004009633749206777,-0.0013161434984854878,0.00011174532815568791,-0.0010185842139394951,-0.0007615540838631595
20.5,0.0020739249338749778,0.00039280390875375004,-0.0012772739033635337,0.0001249897219767976,-0.0010001705403062877,-0.0007382341771430447
20.6,0.0020530052413671855,0.0003845500904886888,-0.001239705798093786,0.0001373592840384597,-0.0009822641699893647,-0.0007156583226193661
20.700000000000003,0.0020315922598716186,0.00037622391934337326,-0.0012034084232695674,0.00014888606607664514,-0.0009648654815809579,-0.0006938121320475988
20.8,0.0020097266098984433,0.00036784639733566964,-0.0011683504546195524,0.00015960184913419595,-0.0009479733131533099,-0.0006726806457142074
20.900000000000002,0.0019874483574204736,0.00035943752319461144,-0.0011345001110969872,0.00016953808946300957,-0.0009315850748684396,-0.0006522484041608413
21.0,0.0019647969206639275,0.00035101628977799544,-0.0011018252574315102,0.00017872586841260248,-0.000915696857937894,-0.0006324995166631406
21.1,0.0019418109845493426,0.00034260068480719097,-0.0010702935011904923,0.00018719584621026302,-0.0009003035399217237,-0.0006134177265146631
21.200000000000003,0.0019185284225943409,0.000334207694718429,-0.0010398722844269335,0.00019497821952211642,-0.000885398886329459,-0.0005949864731496572
21.3,0.0018949862258803673,0.00032585331131947977,-0.0010105289702175093,0.00020210268255521895,-0.0008709756480698804,-0.0005771889508941349
21.400000000000002,0.0018712204395396614,0.00031755254144135147,-0.0009822309234534692,0.00020859839201266598,-0.0008570256561844805,-0.0005600081652418686
21.5,0.0018472661056006966,0.00030931941884546754,-0.000954945587019049,0.00021449393517745304,-0.000843539911829248,-0.0005434269855084933
21.6,0.0018231572124437986,0.0003011670184820391,-0.0009286405529453143,0.00021981730131305112,-0.0008305086725483923,-0.0005274281945347101
21.700000000000003,0.0017989266506201664,0.0002931074729081612,-0.0009032836286677206,0.00022459585625235267,-0.0008179215348394637,-0.0005119945354878537
21.8,0.001774606174784629,0.000285151990680672,-0.000878842898520866,0.00022885632004495876,-0.0008057675130211723,-0.000497108755817496
21.900000000000002,0.0017502263714716656,0.00027731087653437656,-0.0008552867806305543,0.0002326247475206151,-0.0007940351143833312,-0.0004827536484005453
22.0,0.001725816632426905,0.00026959355315362245,-0.0008325840793848965,0.00023592651161606613,-0.0007827124105754537,-0.0004689120898973877
22.1,0.0017014051332673683,0.00026200858438791923,-0.0008107040335884048,0.00023878628936077246,-0.0007717871053477008,-0.00045556707643150103
22.200000000000003,0.0016770188172112032,0.00025456369974895704,-0.0007896163604449005,0.00024122805039457424,-0.0007612465986935197,-0.0004427017566655379
22.3,0.001652683383617319,0.0002472658200326655,-0.0007692912955196044,0.00024327504789011596,-0.0007510780474456173,-0.00043029946234676735
22.400000000000002,0.001628423281074673,0.00024012108391492713,-0.0007496996288321879,0.0002449498117541103,-0.0007412684223838578,-0.0004183437363973193
22.5,0.0016042617047845795,0.00023313487537733957,-0.0007308127372335385,0.00024627414398330574,-0.0007318045619205336,-0.0004068183586274178
22.6,0.0015802205979799473,0.0002263118518244351,-0.0007126026132189617,0.0002472691160533724,-0.0007226732224325811,-0.000395707369150465
22.700000000000003,0.0015563206571236074,0.00021965597275757357,-0.0006950418903358541,0.00024795506821757623,-0.0007138611253289825,-0.00038499508958874675
22.8,0.0015325813405722682,0.0002131705288435189,-0.0006781038653976647,0.0002483516105634432,-0.0007053550010901021,-0.0003746661422431048
22.900000000000002,0.0015090208804490717,0.00020685817125287723,-0.0006617625176672308,0.00024847762570608426,-0.0006971416304036304,-0.0003647054673320563
23.0,0.00148565629770364,0.00020072094128273705,-0.0006459925249762124,0.00024835127311377217,-0.0006892078822235666,-0.00035509833822958836
23.1,0.001462503420212612,0.0001947603002042691,-0.0006307692768550494,0.0002479899949986717,-0.0006815407487458782,-0.0003458303747291517
23.200000000000003,0.0014395769035678249,0.00018897715916024879,-0.0006160688849194788,0.0002474105236070802,-0.0006741273775232779,-0.0003368875544948863
23.3,0.0014168902542829895,0.0001833719089907193,-0.0006018681906950966,0.00024662888978336617,-0.0006669551008570623,-0.00032825622280858264
23.400000000000002,0.0013944558550971974,0.0001779444498386639,-0.000588144771112818,0.0002456604326544431,-0.0006600114626559024,-0.00031992310074993976
23.5,0.0013722849920290666,0.00017269422037780252,-0.0005748769419286923,0.0002445198102716589,-0.0006532842429886501,-0.0003118752919666806
23.6,0.0013503878832187566,0.00016762022672832706,-0.000562043759011174,0.00024322101123088813,-0.0006467614801903349,-0.00030410028797381143
23.700000000000003,0.0013287737093374947,0.00016272107097580206,-0.0005496250176359382,0.00024177736717636073,-0.0006404314906842944,-0.0002965859720996025
23.8,0.0013074506454966391,0.00015799497929761704,-0.0005376012498245925,0.00024020156615590997,-0.0006342828864829373,-0.00028932062207655344
23.900000000000002,0.0012864258944662002,0.00015343982963035574,-0.0005259537198577223,0.00023850566674125001,-0.0006283045904805706,-0.0002822929113640423
24.0,0.001265705720796031,0.00014905317868918062,-0.000514664418282195,0.00023670111271706886,-0.000622485849838463,-0.0002754919093965168
24.1,0.0012452954857292728,0.00014483228832510854,-0.0005037160544837745,0.00023479874829200102,-0.0006168162475109516,-0.00026890708080197615
24.200000000000003,0.0012251996827918946,0.000140774151202247,-0.0004930920478692701,0.00023280883379975595,-0.0006112857119737967,-0.0002625282836408891
24.3,0.0012054219739901922,0.0001368755158039346,-0.000482776517836729,0.00023074106178203513,-0.0006058845251630408,-0.0002563457666847623
24.400000000000002,0.001185965226326337,0.000133132910648611,-0.00047275427243015204,0.00022860457351017903,-0.0006006033288674462,-0.0002503501658899959
24.5,0.001166831548653087,0.000129542667777027,-0.0004630107961228932,0.00022640797568284596,-0.0005954331294987042,-0.0002445325000339359
24.6,0.0011480223287122625,0.00012610094546837848,-0.00045353223677301285,0.0002241593572742067,-0.000590365301365968,-0.00023888416559862878
24.700000000000003,0.001129538269888693,0.00012280374996451144,-0.00044430539124329333,0.00022186630682949425,-0.0005853915888595738,-0.0002333969311494083
24.8,0.001111379428218378,0.00011964695656336034,-0.0004353176908959226,0.00021953592949772646,-0.0005805041070237609,-0.00022806293091040232
24.900000000000002,0.0010935452490754107,0.00011662632979219909,-0.00042655718627334255,0.00021717486421003995,-0.0005756953410148407,-0.00022287465783834995
25.0,0.0010760346034982794,0.00011373754268723816,-0.0004180125311264631,0.00021478930091040695,-0.0005709581445003393,-0.0002178249562332573
25.1,0.001058845824071866,0.00011097619517823821,-0.00040967296588175937,0.00021238499778707075,-0.0005662857370770896,-0.00021290701393720637
25.200000000000003,0.0010419767402840617,0.00010833783157769145,-0.00040152830062728685,0.00020996729846092292,-0.0005616717007856347,-0.0002081143541713534
25.3,0.0010254247132792885,0.00010581795717468975,-0.00039356889769481736,0.0002075411490890528,-0.0005571099757965657,-0.00020344082705938863
25.400000000000002,0.0010091866699598146,0.00010341205394912825,-0.00038578565397072684,0.0002051111153100895,-0.0005525948552931994,-0.00019888060085511042
25.5,0.0009932591364169214,0.00010111559543815948,-0.0003781699831461221,0.00020268139891372258,-0.000548120979509965,-0.0001944281528533118
25.6,0.0009776382705839904,9.89240607331483e-05,-0.00037071379782229456,0.0002002558542897795,-0.0005436833291088189,-0.00019007826009384335
25.700000000000003,0.0009623198940547106,9.683294761470334e-05,-0.000363409491515632,0.00019783800463744048,-0.0005392772179706376,-0.00018582598990556846
25.8,0.0009472995230161919,9.483778483572949e-05,-0.00035624992061307,0.00019543105791066753,-0.0005348982854673971,-0.00018166669032944867
25.900000000000002,0.000932572398255586,9.293414356647663e-05,-0.0003492283863273893,0.00019303792247761596,-0.0005305424882769268,-0.00017759598045729774
26.0,0.0009181335141995066,9.1117648014403e-05,-0.00034233861672237583,0.0001906612224599744,-0.0005262060917720401,-0.00017360974070464098
26.1,0.0009039776469515051,8.938398523404625e-05,-0.0003355747488972697,0.00018830331270711808,-0.0005218856609884309,-0.00016970410301956864
26.200000000000003,0.0008900993813034249,8.772891414661226e-05,-0.0003289313113169061,0.00018596629342087706,-0.0005175780512830765,-0.00016587544109260285
26.3,0.0008764931366988281,8.614827378904022e-05,-0.0003224032063199159,0.00018365202441973316,-0.0005132803987397066,-0.00016212036059899936
26.400000000000002,0.0008631531921304388,8.46379908129947e-05,-0.00031598569283695037,0.00018136213903102214,-0.0005089901103699463,-0.00015843568949998714
26.5,0.00085007370995791,8.319408625521895e-05,-0.0003096743693490815,0.00017909805760166406,-0.0005047048541570572,-0.00015481846842803777
26.6,0.0008372487586384468,8.18126816031498e-05,-0.0003034651571395711,0.0001768610006039964,-0.0005004225489602086,-0.000151265941164081
26.700000000000003,0.000824672334365436,8.049000417926643e-05,-0.0002973542839033734,0.00017465200130718667,-0.0004961413542809836,-0.0001477755452047741
26.8,0.0008123383816118981,7.92223918675918e-05,-0.0002913382676872723,0.000172471918038735,-0.0004918596599794709,-0.00014434490246812535
26.900000000000002,0.0008002408125807982,7.800629720720844e-05,-0.0002854139011776186,0.00017032144603386807,-0.0004875760759787809,-0.0001409718101569456
27.0,0.0007883735255666676,7.68382908775895e-05,-0.00027957823635189606,0.00016820112887161787,-0.00048328942199261303,-0.00013765423179636644
27.1,0.0007767304222371658,7.571506460164427e-05,-0.00027382856950828937,0.0001661113694971607,-0.000478998717308245,-0.00013439028846082464
27.200000000000003,0.0007653054238466952,7.463343349294856e-05,-0.0002681624267140411,0.00016405244081447795,-0.00047470317063044254,-0.00013117825018921255
27.3,0.0007540924863983388,7.359033787474461e-05,-0.00026257754971468437,0.00016202449583281706,-0.00047040216998565833,-0.0001280165275841943
27.400000000000002,0.0007430856147674951,7.258284459512176e-05,-0.00025707188227030493,0.00016002757739492552,-0.00046609527274953626,-0.00012490366362828199
27.5,0.0007322788758049089,7.160814786417392e-05,-0.0002516435569221256,0.0001580616274930313,-0.0004617821958231661,-0.00012183832572722145
27.6,0.0007216664104404021,7.066356963959446e-05,-0.0002462908821945979,0.00015612649617677342,-0.00045746280598012455,-0.00011881929798899675
27.700000000000003,0.0007112424448097265,6.974655958671034e-05,-0.00024101233023731257,0.00015422195005848987,-0.0004531371104023313,-0.00011584547374454193
27.8,0.0007010013004373909,6.885469464373194e-05,-0.00023580652495278797,0.00015234768039588294,-0.0004488052473841963,-0.00011291584829321925
27.900000000000002,0.0006909374034967918,6.798567821472405e-05,-0.00023067223059203634,0.00015050331077033437,-0.0004444674772371164,-0.00011002951188768476
28.0,0.0006810452931723412,6.713733901432203e-05,-0.00022560834079972546,0.0001486884043788025,-0.00044012417342322843,-0.00010718564297031333
28.1,0.0006713196291507859,6.630762958801462e-05,-0.00022061386810635556,0.00014690247094737634,-0.00043577581393179583,-0.00010438350166430502
28.200000000000003,0.0006617551982704978,6.549462453196485e-05,-0.00021568793386232037,0.0001451449732765273,-0.00043142297291038674,-0.00010162242352199141
28.3,0.0006523469203651159,6.46965184397527e-05,-0.00021082975862299672,0.0001434153334189512,-0.0004270663125467026,-9.890181352302701e-05
28.400000000000002,0.0006430898533445,6.3911623605797e-05,-0.0002060386530087833,0.00014171293848250463,-0.00042270657517899646,-9.622114030511537e-05
28.5,0.0006339791975312432,6.313836750031997e-05,-0.00020131400900204655,0.00014003714608706527,-0.00041834457567427937,-9.357993064597109e-05
28.6,0.0006250102992818482,6.237529003587544e-05,-0.00019665529167089816,0.00013838728948687646,-0.00041398119408373666,-9.097776419730119e-05
28.700000000000003,0.0006161786539247831,6.162104064688527e-05,-0.0001920620313105991,0.0001367626823698451,-0.0004096173685810491,-8.84142684698825e-05
28.8,0.0006074799027912153,6.087437220348588e-05,-0.00018753381054514433,0.00013516262652652487,-0.0004052540894241942,-8.588911449785888e-05
28.900000000000002,0.0005989098432800981,6.013414267423637e-05,-0.00018307026594243728,0.00013358641092676158,-0.00040089239126663056,-8.340201160906893e-05
29.0,0.0005904644287146053,5.93993109952523e-05,-0.00017867108012515018,0.00013203331636018606,-0.00039653334707306475,-8.095270321613049e-05
29.1,0.0005821397679953495,5.86689330585732e-05,-0.00017433597461477893,0.00013050261957889538,-0.0003921780622717073,-7.854096281310275e-05
29.200000000000003,0.0005739321250442645,5.794215780697801e-05,-0.00017006470336132572,0.0001289935969778997,-0.00038782766914884,-7.616659017734234e-05
29.3,0.0005658379180331544,5.721822342286139e-05,-0.00016585704691379362,0.0001275055278470319,-0.00038348332149036287,-7.382940777590109e-05
29.400000000000002,0.0005578537184062922,5.6496453608455806e-05,-0.00016171280712278942,0.00012603769726475831,-0.0003791461894336055,-7.152925735142484e-05
29.5,0.0005499762497285821,5.577625396735669e-05,-0.00015763180213283678,0.0001245893987810725,-0.00037481745440874506,-6.926599661384773e-05
29.6,0.0005422023862207453,5.505710840042408e-05,-0.00015361386188701424,0.000123159936763101,-0.00037049830438108417,-6.703949615938079e-05
29.700000000000003,0.0005345291505734346,5.4338575278339905e-05,-0.00014965882405813824,0.0001217486284588393,-0.0003661899295817163,-6.4849636722575e-05
29.8,0.0005269537114986791,5.3620283656080854e-05,-0.0001457665304384331,0.00012035480576479409,-0.00036189351852928343,-6.269630664070532e-05
29.900000000000002,0.0005194733807816803,5.290192938845384e-05,-0.00014193682360120411,0.00011897781681125223,-0.0003576102543864605,-6.057939955275413e-05
30.0,0.0005120856101723072,5.2183271339491394e-05,-0.0001381695439515209,0.00011761702729967078,-0.0003533413115560338,-5.849881227323817e-05
30.1,0.000504787987995915,5.146412760992881e-05,-0.00013446452691354146,0.00011627182174351889,-0.0003490878524664518,-5.645444280903577e-05
30.200000000000003,0.0004975782356739991,5.074437188649237e-05,-0.00013082160044742573,0.00011494160450143437,-0.0003448510245622279,-5.4446188525657596e-05
30.3,0.0004904542044532799,5.002393007550575e-05,-0.0001272405824505753,0.0001136258008660953,-0.00034063195714019326,-5.247394425069179e-05
30.400000000000002,0.00048436408258322854,4.9844838059749756e-05,-0.0001230194614234013,0.00011273382163734427,-0.00033560381129271716,-5.005386362009954e-05
30.5,0.0004808693512717912,5.107972917038316e-05,-0.00011700681832712888,0.00011293150964393183,-0.00032839239966296586,-4.638953109758304e-05
30.6,0.0004818923997399531,5.4776482684291556e-05,-0.00010779093401087705,0.00011502686954445705,-0.00031728838401466066,-4.0500598456222534e-05
30.700000000000003,0.0004895294731017525,6.20458711614617e-05,-9.383998244132151e-05,0.00011988607713615705,-0.00030040645533271736,-3.131852889983766e-05
30.8,0.0005059139230552595,7.398201843342919e-05,-7.360451027797899e-05,0.00012837277901438433,-0.00027580348895494134,-1.7756938393704166e-05
30.900000000000002,0.0005331180619412978,9.160776908588431e-05,-4.55909189369635e-05,0.00014130525028193094,-0.00024156501654163992,1.2376396180440192e-06
31.0,0.0005730845387320797,0.00011583885841316685,-8.412713165266135e-06,0.00015942719690326498,-0.00019586727302706562,2.6650041727831074e-05
31.1,0.0006275801806012134,0.00014746215266978063,3.9175225919365894e-05,0.00018338892859384875,-0.00013702046842449056,5.9372292927365036e-05
31.200000000000003,0.0006981668344084543,0.00018712431136833367,9.825526542108537e-05,0.00021373636340268751,-6.349767368102593e-05,0.00010018821953050525
31.3,0.0007861849789670209,0.0002353280641918412,0.00016973537963674894,0.0002509058952733575,2.6047267829317186e-05,0.00014976472922793602
31.400000000000002,0.0008927468471869293,0.00029243395276094846,0.00025434479495452857,0.00029522360164320385,0.0001327701559701345,0.00020864810705677287
31.5,0.001018736549048846,0.00035866589817815607,0.00035263502654625024,0.0003469076142693149,0.000257633122574285,0.0002772640460379276
31.6,0.001164815270267353,0.0004341193516696285,0.00046498484322106236,0.00040607274567235687,0.0004014060000708213,0.00035592041920138337
31.700000000000003,0.0013314300764378573,0.0005187710939167084,0.0005916080328542662,0.0004727366739781705,0.0005646711368920732,0.00044481202501599605
31.8,0.0015188252035661701,0.0006124899861801637,0.0007325631010279208,0.0005468271521203007,0.0007478307055969499,0.0005440267132328202
31.900000000000002,0.001727054987529284,0.0007150481594303879,0.0008877642380054824,0.0006281898344942632,0.0009511157670012477,0.00065355243472466
32.0,0.0019559977944795643,0.0008261322681761966,0.001056993046556016,0.0007165964130635947,0.0011745965227555448,0.0007732848654052197
32.1,0.002205370474699559,0.0009453545426100078,0.0012399106450185738,0.0008117528315637555,0.0014181933199878898,0.0009030353370854123
32.2,0.002474742985559295,0.0010722634539225187,0.0014360698547893585,0.0009133074060555195,0.0016816880738265345,0.0010425388727213342
32.300000000000004,0.002763552923033655,0.001206353868728825,0.0016449272548351595,0.0010208587262145786,0.0019647358529541227,0.001191462173736201
32.4,0.0030711197724278194,0.0013470766141100877,0.0018658549426847307,0.0011339632474030386,0.002266876434943992,0.0013494114461413496
32.5,0.0033966587428616393,0.0014938474084705622,0.002098151885426654,0.0012521425111288922,0.0025875456860475245,0.0015159399825611832
32.6,0.003739294090583422,0.0016460551379576824,0.0023410547782911815,0.0013748899526876684,0.002926086657289008,0.0016905554408320979
32.7,0.00409807186629541,0.0018030694756787516,0.0025937483545237553,0.0015016772709331577,0.003281760317421542,0.0018727267780052157
32.800000000000004,0.004471972044441166,0.001964247853430413,0.002855375110665392,0.0016319603476068563,0.003653755865869475,0.0020618908128022056
32.9,0.004859920009194339,0.0021289418041442677,0.0031250444269968224,0.0017651847130950506,0.00404120058623849,0.002257458400505958
33.0,0.005260797383921701,0.002296502698631964,0.0034018410746227334,0.0019007905624259407,0.004443169214234473,0.0024588202125098288
33.1,0.005673452199710802,0.0024662869035119773,0.0036848331096214345,0.0020382173304882793,0.004858692804117712,0.002665352119058834
33.2,0.006096708405452893,0.0026376603892652927,0.003973079161830707,0.0021769078394466342,0.005286767086165938,0.0028764201787354724
33.300000000000004,0.0065293747266207975,0.0028100028180802453,0.004265635130911288,0.0023163120340161476,0.005726360313746748,0.003091385241836344
33.4,0.006970252883337919,0.0029827111411811482,0.004561560306147752,0.0024558903221497033,0.006176420603375463,0.003309607177489046
33.5,0.007418145181065704,0.003155202734996406,0.004859922929383323,0.0025951165400160446,0.006635882774968338,0.003530448736430985
33.6,0.00787186148881815,0.0033269181045957846,0.0051598052222365815,0.0027334805607492317,0.0071036747020525965,0.003753279062632489
33.7,0.008330225621457465,0.003497323182030974,0.00546030790027461,0.0028704905669006864,0.007578723184008368,0.003977476868021154
33.800000000000004,0.008792081143815744,0.0036659112462560364,0.005760554197750652,0.0030056750066196165,0.008059959354083324,0.004202433285223493
33.9,0.009256296615270748,0.003832204490274872,0.006059693427002106,0.0031385842534196132,0.008546323638102598,0.0044275544135906775
34.0,0.009721770294050604,0.003995755260104831,0.006356904096729853,0.0032687919890147664,0.009036770279587011,0.004652263573881552
34.1,0.010187434321291091,0.004156146989250292,0.0066513966134402495,0.0033958963283059807,0.009530271447698488,0.004876003287022196
34.2,0.010652258405447236,0.0043129948514835795,0.006942415590145089,0.0035195207050647166,0.010025820944866154,0.005098236992244899
34.300000000000004,0.01111525302818452,0.004465946153893766,0.00722924178610109,0.003639314536268708,0.010522437531232361,0.005318450519706486
34.4,0.01157547219323506,0.004614680491317401,0.007511193700877091,0.003754953682365285,0.01101916788314075,0.005536153332368675
34.5,0.012032015739874799,0.004758909682389231,0.007787628845354514,0.0038661407199676906,0.011515089202751414,0.005750879551486011
34.6,0.012484031243416505,0.004898377506971827,0.00805794471202109,0.003972605042995237,0.012009311496189322,0.005962188779885848
34.7,0.012930715524991372,0.005032859263807123,0.008321579466004023,0.004074102807402234,0.012500979537217675,0.0061696667366459386
34.800000000000004,0.013371315793279983,0.005162161166670435,0.00857801237780053,0.004170416734044871,0.012989274533456786,0.006372925716467886
34.9,0.013805130440658729,0.005286119596459366,0.008826764017752236,0.004261355783411827,0.01347341551172816,0.006571604886477529
35.0,0.0142315095162921,0.005404600225999405,0.009067396231634122,0.004346754715279779,0.0139526604388708,0.006765370432752825
35.1,0.014649854898614992,0.005517497033651637,0.009299511916007365,0.004426473545682095,0.014426307094110188,0.006953915568443833
35.2,0.015059620189413866,0.005624731221064038,0.009522754611230482,0.0045003969129055,0.014893693708789475,0.007136960414925856
35.300000000000004,0.015460310341961117,0.005726250044251725,0.009736807921640618,0.004568433359133695,0.01535419938045414,0.007314251762060046
35.4,0.01585016514711768,0.005821272090238321,0.009940345193877808,0.0046299034235025285,0.01580606836877382,0.007484880556789849
35.5,0.016226747819591034,0.005908648390599911,0.010131502677598726,0.004683823262589313,0.01624691698650726,0.007647584888620506
35.6,0.01658733607756279,0.005987097854015992,0.010308193515606941,0.004729091511666512,0.016674073393185097,0.007800951649987738
35.7,0.016929177883257162,0.006055357112063972,0.010468312716249602,0.004764610010568146,0.017084802637177036,0.007943548745475745
35.800000000000004,0.017249654613506037,0.0061122723337098134,0.010609867606959568,0.004789359461653412,0.0174764529732287,0.008074009791594134
35.9,0.017546381080582055,0.006156851918321903,0.010731057503935925,0.00480244450408707,0.017846548260304698,0.00819108640546066
36.0,0.017817262637115555,0.006188293025937871,0.01083031892302679,0.004803118153751034,0.018192843517971544,0.008293678465718697
36.1,0.01806052328442431,0.0062059908162944485,0.010906347559337283,0.004790792438669665,0.018513355403221177,0.008380849484902645
36.2,0.018274714360213853,0.006209536461434021,0.01095810475334998,0.004765039913425448,0.018806375708458153,0.008451831999586285
36.300000000000004,0.01845871039389818,0.0061987080703066475,0.010984813745069096,0.004725589259824149,0.019070473460132745,0.00850602634835777
36.4,0.018611696660980382,0.006173457341223278,0.010985949353504347,0.0046723171656530785,0.019304489460378254,0.008542995150382149
36.5,0.018733151551917456,0.006133893850370471,0.010961223573255631,0.00460523797548454,0.019507525917662243,0.008562455070139741
36.6,0.018822825894180963,0.006080268260940726,0.010910568790540835,0.004524492127440023,0.01967893298746915,0.00856426695327236
36.7,0.01888072069236805,0.00601295530912462,0.010834119777454897,0.004430334060019798,0.019818293475427167,0.00854842507403313
36.800000000000004,0.01890706428508758,0.005932437128655183,0.010732195248485886,0.004323120046314363,0.019925406562708012,0.008515045997547228
36.9,0.01890228959468126,0.005839287273205559,0.010605279505168406,0.004203296257206701,0.02000027114255044,0.008464357396737539
37.0,0.018867011922314145,0.0057341556570967,0.010454004517148925,0.004071387248481935,0.02004306916977739,0.008396687051417693
37.1,0.01880200758421303,0.005617754538739167,0.01027913266445506,0.00392798499298354,0.020054149294623715,0.008312452178950542
37.2,0.018708193577182255,0.005490845606466118,0.010081540282011798,0.0037737385292549016,0.020034010963082362,0.008212149192837926
37.300000000000004,0.018586608385565136,0.005354228181887748,0.00986220208915474,0.0036093442638232952,0.019983289103409893,0.008096343948634881
37.4,0.018438393988307055,0.0052087285256632926,0.009622176546508578,0.0034355369408201877,0.01990273947454716,0.007965662510889917
37.5,0.01826477908768799,0.005055190210741632,0.009362592155193404,0.003253081276972986,0.019793224721873344,0.007820782457274128
37.6,0.018067063555513612,0.004894465515400746,0.009084634694733524,0.0030627642496271514,0.01965570116458113,0.007662424724049493
37.7,0.017846604074180334,0.004727407780354414,0.008789535383078452,0.002865388018434491,0.019491206323718164,0.007491345988541593
37.800000000000004,0.01760480093750884,0.004554864669754351,0.008478559933566642,0.0026617634569175656,0.019300847189303718,0.0073083315785409326
37.9,0.0173430859679461,0.004377672274047758,0.00815299847817136,0.0024527042675058577,0.019085789217547482,0.007114188894742919
38.0,0.017062911500960867,0.004196649992281556,0.007814156322595708,0.002239021652017487,0.018847246043653315,0.006909741329602982
38.1,0.01676574038402773,0.004012596132425331,0.007463345496624489,0.0020215195088630496,0.018586469891876428,0.006695822664258655
38.2,0.01645303693619785,0.0038262841703842836,0.007101877062390155,0.0018009901283509162,0.018304742662216576,0.0064732719243322965
38.300000000000004,0.01612625881288339,0.0036384596103850204,0.006731054142233932,0.0015782103574064695,0.01800336767066096,0.00624292867445961
38.400000000000006,0.015786849720835074,0.003449837392322273,0.00635216562808719,0.0013539382056418046,0.017683662018760503,0.006005628731193995
38.5,0.015436232929380367,0.0032610997948428516,0.0059664805350049185,0.001128909865574518,0.017346949567755426,0.005762200274050114
38.6,0.01507580552503085,0.003072894785946,0.0055752429619870605,0.0009038371205031015,0.016994554491726356,0.005513460334437679
38.7,0.014706933358259842,0.0028858347761024756,0.005179667624159586,0.0006794051144807415,0.01662779538403271,0.005260211642513223
38.800000000000004,0.014330946633051471,0.002700495732011871,0.004780935921387518,0.0004562704597720375,0.016247979891262265,0.0050032398123358735
38.900000000000006,0.013949136092059267,0.002517416612320442,0.004380192509637442,0.00023505965823731576,0.01585639984915807,0.004743310846214428
39.0,0.013562749752346068,0.002337099089592826,0.003978542342548322,1.6367814060973458e-05,0.01545432689519539,0.004481168939590556
39.1,0.013172990148863278,0.0021600075256695225,0.0035770481518755397,-0.00019924238377298095,0.015043008532867688,0.004217534568345502
39.2,0.01278101204509403,0.0019865691702682458,0.003176728336690233,-0.0004112414298846326,0.014623664623156363,0.003953102840956288
39.300000000000004,0.012387920572652728,0.001817174555322221,0.0027785552325124002,-0.0006191335414091916,0.014197484279199294,0.0036885420985202496
39.400000000000006,0.011994769763868823,0.0016521780599599721,0.002383453732866689,-0.000822456986057171,0.013765623140903063,0.0034244927463511427
39.5,0.011602561443615439,0.0014918986233084226,0.0019923002369611445,-0.0010207842170540597,0.013329201006794343,0.003161566301409566
39.6,0.01121224444880477,0.0013366205844122755,0.0016059218984297902,-0.0012137218317769892,0.012889299801110579,0.0029003446404631014
39.7,0.010824714145999384,0.0011865946304820245,0.0012250961512885003,-0.0014009103700253734,0.012446961854881287,0.002641379434514486
39.800000000000004,0.0104408122195691,0.0010420388364735175,0.0008505504904395179,-0.0015820239670080363,0.012003188480523716,0.0023851917556757737
39.900000000000006,0.010061326704805747,0.0009031397806998815,0.0004829624852188357,-0.0017567698753016767,0.011558938820168214,0.0021322718432420992
40.0,0.00968699224247476,0.0007700537228397502,0.00012296000559365233,-0.001924887869244921,0.01111512894846107,0.00188307901618645
40.1,0.009318490532791757,0.0006429078319654754,-0.00022887835828265578,-0.0020861495444576346,0.010672631211569271,0.0016380417200167166
40.2,0.008956450967885875,0.0005218014531645974,-0.000572022701363275,-0.002240357524415935,0.010232273785439248,0.0013975576968504005
40.300000000000004,0.008601451424141216,0.0004068074029574799,-0.0009059910510832497,-0.002387344585330005,0.009794840436325274,0.0011619942676519912
40.400000000000006,0.008254019197192042,0.0002979732847311978,-0.0012303484730685516,-0.002526972709886478,0.009361070467403882,0.0009316887161598729
40.5,0.007914632063343731,0.00019532281616231338,-0.0015447060504755533,-0.002659132079753629,0.00893165883637575,0.0007069487647712446
40.6,0.007583719452126587,9.885716129005104e-05,-0.0018487197513437483,-0.0027837400161131896,0.008507256429998113,0.0004880531333580508
40.7,0.007261663716719057,8.556261198503636e-06,-0.0021420891974995603,-0.002900739876892891,0.008088470481344682,0.0002752521719760225
40.800000000000004,0.006948801489042214,-7.561984261432325e-05,-0.0024245563477396045,-0.003010099918808304,0.007675865117211599,6.876855946864555e-05
40.900000000000006,0.006645425110088971,-0.00015372969585023043,-0.002695904107093238,-0.0031118121316899647,0.007269962021332533,-0.00013120194101143626
41.0,0.006351784121152584,-0.00022584913649632826,-0.002955954873473992,-0.0032058910522022796,0.0068712412048375525,-0.0003244896750370261
41.1,0.006068086808320419,-0.0002920700198891025,-0.0032045690320277836,-0.003292372563389347,0.006480141870893175,-0.0005109502466092835
41.2,0.005794501791020982,-0.00035249896719604447,-0.0034416434069003913,-0.003371312686062919,0.006097063363136989,-0.0006904636309829683
41.300000000000004,0.005531159645799575,-0.0004072561405094174,-0.0036671096795025237,-0.0034427863675945873,0.005722366188419017,-0.0008629332564853443
41.400000000000006,0.00527815455765706,-0.0004564740470582571,-0.003880932781687519,-0.003506886273212322,0.005356373104471183,-0.0010282850610925512
41.5,0.005035545991808458,-0.0005002963747414869,-0.004083109271658566,-0.003563721584481048,0.004999370263750634,-0.0011864665291114423
41.6,0.004803360379201345,-0.0005388768609064515,-0.004273665699849914,-0.0036134168092446747,0.004651608405294551,-0.00133744571292257
41.7,0.0045815928096388705,-0.0005723781960104581,-0.004452656971479669,-0.0036561106069220102,0.00431330408693085,-0.001481210244400096
41.800000000000004,0.004370208727060519,-0.0006009709634013893,-0.0046201647119466,-0.0036919546326804626,0.003984640950478295,-0.0016177663404155769
41.900000000000006,0.004169145621829018,-0.0006248326162993378,-0.0047762956407477915,-0.0037211124036628353,0.0036657710131404006,-0.001747137806456708
42.0,0.003978314714989158,-0.0006441464930079601,-0.004921179959126381,-0.0037437581901138607,0.0033568159789673373,-0.0018693650419600385
42.1,0.003797602629996361,-0.0006591008710899565,-0.005054969756205708,-0.0037600759339363123,0.003057868564549625,-0.0019845040507533275
42.2,0.003626873047744935,-0.0006698880610678152,-0.0051778374379411575,-0.00377025819690931,0.0027689938335171064,-0.002092625459729217
42.300000000000004,0.0034659683411435486,-0.0006767035399909479,-0.005289974182750049,-0.0037745051404807985,0.0024902305348504005,-0.0021938135485843704
42.400000000000006,0.003314711186425387,-0.0006797451246952171,-0.005391588426927362,-0.0037730235385639308,0.002221592440597667,-0.002288165293083133
42.5,0.003172906147037662,-0.0006792121853914842,-0.005482904383648158,-0.003766025825142125,0.0019630696781127634,-0.002375789424561677
42.6,0.0030403412264404994,-0.0006753048999481591,-0.005564160598815319,-0.003753729178128962,0.0017146300524896359,-0.002456805508026093
42.7,0.0029167893878563316,-0.0006682235482672699,-0.005635608545607328,-0.0037363546400703555,0.0014762203561770086,-0.0025313430403942623
42.800000000000004,0.0028020100385325185,-0.0006581678464772544,-0.005697511259782961,-0.0037141262763753543,0.0012477676625906229,-0.0025995405705127165
42.900000000000006,0.0026957504758950202,-0.0006453363208069433,-0.005750142017844223,-0.0036872703717661546,0.0010291806004928687,-0.0026615448425864816
43.0,0.0025977472933092043,-0.0006299257208405112,-0.005793783059800146,-0.0036560146654057357,0.0008203506062344024,-0.002717509964445686
43.1,0.0025077277435715858,-0.0006121304716533352,-0.005828724357817168,-0.003620587624876253,0.000621153151463394,-0.0027675966017490943
43.2,0.002425411058477088,-0.0005921421642428868,-0.005855262431776708,-0.0035812177590129023,0.00043144894417154994,-0.0028119711990525426
43.300000000000004,0.0023505097228629424,-0.0005701490836793349,-0.005873699212647731,-0.0035381329695237545,0.00025108510105523814,-0.0028508052285900597
43.400000000000006,0.0022827307018325185,-0.0005463357742688257,-0.005884340954277532,-0.0034915599411392824,7.98962891243495e-05,-0.0028842744676278115
43.5,0.0022217766193420208,-0.0005208826413664088,-0.005887497194500739,-0.0034417235702067575,-8.229416393924949e-05,-0.002912558304307741
43.6,0.0021673468884113567,-0.0004939655883187745,-0.00588347976488994,-0.0033888464307147257,-0.00023567319419604829,-0.0029358390736825596
43.7,0.002119138790595869,-0.00046575568859306835,-0.005872601850352341,-0.0033331482778455384,-0.00038043695913455585,-0.0029543014226464577
43.800000000000004,0.002076848504420384,-0.0004364188919827714,-0.0058551770982523945,-0.0032748455882541964,-0.0005167898302124126,-0.0029681317043046664
43.900000000000006,0.0020401720841485044,-0.00040611576288482684,-0.005831518775286414,-0.003214151135428241,-0.0006449434244751111,-0.002977517403869365
44.0,0.0020088063848387734,-0.00037500125183124094,-0.005801938974725944,-0.0031512736010780363,-0.000765115669214705,-0.0029826465920769775
44.1,0.0019824499362570782,-0.00034322449764886016,-0.00576674787127347,-0.0030864172203420056,-0.000877529905123367,-0.0029837074089628093
44.2,0.0019608037653715354,-0.00031092865935799114,-0.0057262530231696794,-0.0030197814600280526,-0.0009824140277598025,-0.0029808875774536728
44.300000000000004,0.0019435721675281816,-0.000278250776754918,-0.0056807587208558665,-0.002951560728926263,-0.001079999667457888,-0.0029743739464272133
44.400000000000006,0.0019304634262462008,-0.0002453216587672336,-0.005630565381557123,-0.002881944119278981,-0.0011705214072205916,-0.002964352062542715
44.5,0.00192119048147386,-0.0002122657987729946,-0.005575968989198142,-0.002811115178535916,-0.001254216037650175,-0.0029510057698652406
44.6,0.0019154715473952266,-0.0001792013154035685,-0.005517260578344115,-0.0027392517101148305,-0.0013313218495761025,-0.002934516837265816
44.7,0.0019130306805144074,-0.00014623991762338566,-0.005454725761064274,-0.002666525602029922,-0.0014020779641810942,-0.0029150646130699305
44.800000000000004,0.0019135982987165767,-0.00011348689295024516,-0.005388644295586662,-0.002593102682252227,-0.0014667237001544339,-0.002892825706271681
44.900000000000006,0.001916911652059871,-8.104111770033739e-05,-0.005319289695568939,-0.0025191425996602093,-0.001525497977241157,-0.002867973693544537
45.0,0.001922715246533926,-4.8995087916365e-05,-0.005246928878682806,-0.002444798729384566,-0.001578638755902233,-0.002840678851493011
45.1,0.0019307612219423024,-1.7434969739624443e-05,-0.005171821853203652,-0.002370218101368727,-0.0016263825125242234,-0.002811107913433186
45.2,0.0019408096848945841,1.355933186274041e-05,-0.00509422144132614,-0.002295541351004721,-0.0016689637492348377,-0.0027794238497742883
45.300000000000004,0.0019526289986290487,4.3914087477769244e-05,-0.005014373037736555,-0.002220902690613607,-0.0017066145380852135,-0.0027457856715009036
45.400000000000006,0.0019659960304724104,7.356164161525195e-05,-0.0049325144021942595,-0.0021464299006912204,-0.0017395640981375383,-0.002710348255542824
45.5,0.001980696358854872,0.00010244029654381826,-0.004848875484600601,-0.0020722443396999834,-0.0017680384051702968,-0.0026732621915275707
45.6,0.0019965244412839954,0.00013049418272165312,-0.0047636782811655695,-0.0019984609712864485,-0.001792259832994084,-0.0026346736489946806
45.7,0.0020132837447429525,0.00015767311694004916,-0.00467713672027484,-0.0019251884078203547,-0.0018124468253367873,-0.002594724264144426
45.800000000000004,0.0020307868402178494,0.0001839324493913691,-0.004589456576602618,-0.0018525289691380255,-0.0018288135974636273,-0.002553551045329243
45.900000000000006,0.002048855462991164,0.0002092329007880209,-0.004500835412048156,-0.0017805787554120735,-0.0018415698665400196,-0.0025112862964155667
46.0,0.0020673205403703193,0.00023354039063550974,-0.004411462542080457,-0.0017094277330930567,-0.0018509206097238778,-0.0024680575571448572
46.1,0.002086022188543867,0.00025682585773509337,-0.004321519026085871,-0.0016391598328942341,-0.001857065848957176,-0.002423987559626205
46.2,0.002104809680277306,0.0002790650739636491,-0.004231177680326532,-0.00156985305881657,-0.0018602004614178226,-0.002379194200101763
46.300000000000004,0.002123541385314423,0.0003002384524290038,-0.004140603112114436,-0.001501579607228089,-0.0018605140147383693,-0.002333790525225161
46.400000000000006,0.0021420846851939886,0.00032033085097088644,-0.004049951773848936,-0.0014344059950543537,-0.0018581906259257108,-0.0022878847320041236
46.5,0.002160315864132177,0.0003393313719104553,-0.003959372035597698,-0.001368393196172622,-0.0018534088428522036,-0.0022415801805350582
46.6,0.0021781199776789452,0.0003572331589538127,-0.0038690042749164356,-0.001303596785127743,-0.0018463415472650695,-0.0021949754187160888
46.7,0.0021953907008404063,0.0003740331921154698,-0.00377898098263228,-0.0012400670873207828,-0.0018371558782650029,-0.002148164218141107
46.800000000000004,0.0022120301573341546,0.0003897320814847637,-0.0036894268833451843,-0.0011778493348534732,-0.0018260131752107554,-0.0021012356203935277
46.900000000000006,0.0022279487316356466,0.00040433386062758574,-0.003600459069432915,-0.0011169838272447952,-0.0018130689390330006,-0.002054273992987092
47.0,0.002243064865565414,0.0004178457804424341,-0.0035121871473623163,-0.0010575060962591553,-0.0017984728110883453,-0.002007359094300049
47.1,0.0022573048409171566,0.0004302781041225579,-0.003424713395173204,-0.0009994470741364338,-0.001782368568470311,-0.001960566146734182
47.2,0.0022706025496276516,0.00044164390385709716,-0.0033381329300334107,-0.0009428332645449981,-0.0017648941347568677,-0.0019139659173799063
47.300000000000004,0.0022828992529738603,0.000451958859877356,-0.003252533884796481,-0.0008876869156100711,-0.0017461816052213566,-0.001867624805508105
47.400000000000006,0.002294143331234803,0.0004612410624102605,-0.003167997592533796,-0.000834026194403793,-0.0017263572855533188,-0.001821604936232078
47.5,0.002304290025204266,0.00046951081705674775,-0.003084598778051445,-0.0007818653623168576,-0.0017055417431553412,-0.0017759642597054578
47.6,0.0023133011709023966,0.0004767904540781178,-0.0030024057554417123,-0.0007312149507637978,-0.001683849870118301,-0.0017307566552536454
47.7,0.0023211449288023872,0.00048310414204345733,-0.0029214806307582175,-0.0006820819367063855,-0.0016613909570228145,-0.001686032039872779
47.800000000000004,0.0023277955087628575,0.000488477706209458,-0.0028418795089488083,-0.000634469917513976,-0.0016382687766746283,-0.0016418364805161673
47.900000000000006,0.0023332328918249778,0.0004929384519785527,-0.0027636527042195092,-0.0005883792847106358,-0.0016145816769332195,-0.0015982123096278064
48.0,0.0023374425499794365,0.0004965149937443723,-0.0026868449530434864,-0.0005438073961895384,-0.0015904226818218925,-0.0015551982434084946
48.1,0.0023404151649472726,0.0004992370893941155,-0.0026114956290692296,-0.0005007487465054103,-0.0015658796001339714,-0.0015128295023236686
48.2,0.0023421463469603374,0.0005011354807008188,-0.0025376389592227915,-0.00045919513488549863,-0.001541035140777977,-0.0014711379333867858
48.300000000000004,0.0023426363545570594,0.0005022417398537558,-0.002465304240273147,-0.00041913583058990984,-0.0015159670340781546,-0.001430152133744031
48.400000000000006,0.0023418898164607013,0.0005025881224028359,-0.0023945160550932123,-0.0003805577352369037,-0.0014907481582160345,-0.001389897575075683
48.5,0.0023399154559418972,0.0005022074265090472,-0.002325294488347561,-0.0003434455420042585,-0.0014654466704504315,-0.0013503967286018208
48.6,0.0023367258181487957,0.0005011328584506232,-0.0022576553412703903,-0.00030778189158027437,-0.0014401261426815223,-0.0013116691904411818
48.7,0.0023323370014893714,0.0004993979046862742,-0.002191610344706892,-0.0002735475244536527,-0.001414845700427852,-0.0012737318067856092
48.800000000000004,0.0023267683937905673,0.0004970362105666694,-0.002127167369865842,-0.00024072142929739202,-0.0013896601645504443,-0.0012365987985158522
48.900000000000006,0.0023200424139748553,0.000494081465798402,-0.0020643306362091236,-0.0002092809871925572,-0.0013646201950328516,-0.0012002818848756685
49.0,0.0023121842595013944,0.000490567296485344,-0.0020031009163039657,-0.0001792021116738663,-0.0013397724365072678,-0.001164790406050159
49.1,0.002303221660015143,0.00048652716369719393,-0.0019434757372980538,-0.00015045938448270463,-0.0013151596650957502,-0.0011301314444256611
49.2,0.002293184637612096,0.00048199426850297747,-0.0018854495786893542,-0.00012302618692119392,-0.001290820936080935,-0.0010963099442800291
49.300000000000004,0.0022821052742018205,0.00047700146345757663,-0.0018290140659967655,-9.68748266633584e-05,-0.001266791731878083,-0.0010633288296308652
49.400000000000006,0.002270017486366586,0.00047158117048877874,-0.0017741581599938641,-7.197665991416311e-05,-0.0012431041098287608,-0.0010311891200017805
49.5,0.002256956807905255,0.00046576530501978713,-0.0017208683410554328,-4.830220874218269e-05,-0.0012197868498308477,-0.000999890044159431
49.6,0.0022429601802844705,0.0004595852061935674,-0.0016691287895725282,-2.5821274233606274e-05,-0.0011968656001079528,-0.0009694291508716903
49.7,0.0022280657511916466,0.00045307157305929076,-0.001618921560386046,-4.503044352568281e-06,-0.0011743630229407163,-0.0009398024178106542
49.800000000000004,0.0022123126813711766,0.00044625440658468924,-0.0015702267523826738,1.568380272929664e-05,-0.0011522989384787623,-0.0009110043575399119
49.900000000000006,0.002195740959863263,0.00043916295733217013,-0.0015230226727896545,3.477100002029414e-05,-0.0011306904667170293,-0.000883028120691088
50.0,0.002178391227736234,0.00043182567863150076,-0.0014772859962106765,5.279059770252293e-05,-0.0011095521672128893,-0.0008558655961359256
50.1,0.002160304610343444,0.00042427018505819335,-0.0014329919177887508,6.977487400629937e-05,-0.0010888961768512088,-0.000829507508390211
50.2,0.002141522558137924,0.0004165232160395085,-0.0013901143013257805,8.575625039431797e-05,-0.0010687323444688352,-0.0008039435116071479
50.300000000000004,0.00212208669601671,0.0004086106043855012,-0.001348625821527929,0.00010076721146237397,-0.0010490683629621944,-0.000779162280587193
50.400000000000006,0.00210203868118521,0.0004005572495645559,-0.001308498100439632,0.00011484022943629396,-0.0010299098986181663,-0.0007551515987076135
50.5,0.0020814200694863768,0.0003923870955271869,-0.0012697018380586063,0.0001280076931893368,-0.0010112607175035305,-0.0007318984427318896
50.6,0.002060272190113226,0.0003841231128774115,-0.001232206937141274,0.00014030184169523823,-0.0009931228087672835,-0.0007093890644706858
50.7,0.002038636028576407,0.0003757872851748329,-0.0011959826223025688,0.00015175470177963138,-0.0009754965046171163,-0.0006876090692111918
50.800000000000004,0.0020165521177285474,0.00036740059912191434,-0.0011609975537040195,0.000162398029924395,-0.0009583805965146349,-0.0006665434907064822
50.900000000000006,0.001994060436767229,0.00035898303847056934,-0.0011272199351513087,0.00017226325815893393,-0.0009417724478056744,-0.0006461768629117238
51.0,0.001971200318067963,0.00035055358145128385,-0.0010946176166293955,0.00018138144395280826,-0.0009256681027546281,-0.0006264932885061964
51.1,0.0019480103616704005,0.0003421302015209519,-0.001063158191341008,0.00018978322400311094,-0.0009100623919317054,-0.0006074765042274069
51.2,0.0019245283572281234,0.00033372987122800153,-0.0010328090873279083,0.00019749877180498329,-0.0008949490339088176,-0.0005891099430469609
51.300000000000004,0.0019007912131460082,0.0003253685689533304,-0.0010035376538390362,0.00020455775884618504,-0.0008803207330844504,-0.0005713767931376488
51.400000000000006,0.001876834892709864,0.00031706128834210577,-0.0009753112425247314,0.0002109893193192444,-0.0008661692736571673,-0.0005542600536983483
51.5,0.0018526943570238196,0.000308822050255792,-0.0009480972835243811,0.00021682201825370948,-0.0008524856098211435,-0.0005377425877330074
51.6,0.0018284035145268455,0.0003006639170563243,-0.0009218633565584427,0.00022208382294767705,-0.0008392599521944054,-0.0005218071718420355
51.7,0.0018039951768519435,0.00029259900903756003,-0.0008965772571426061,0.00022680207757613734,-0.0008264818504992814,-0.0005064365430876314
51.800000000000004,0.001779501020657709,0.0002846385227506714,-0.0008722070582181338,0.00023100348075306943,-0.00081414027221357,-0.0004916134428180989
51.900000000000006,0.0017549515555390616,0.00027679275125222237,-0.0008487211668654704,0.0002347140661939355,-0.0008022236780758344,-0.00047732065801798655
52.0,0.0017303760972892275,0.00026907110582696976,-0.0008260883768593997,0.0002379591859869741,-0.0007907200933468126,-0.00046354105958398346
52.1,0.0017058027465203594,0.00026148213917366516,-0.0008042779168649496,0.00024076349654862127,-0.0007796171754988832,-0.0004502576379696199
52.2,0.0016812583723833261,0.00025403356989073706,-0.0007832594944236197,0.0002431509471338914,-0.00076890227837667,-0.0004374535362677362
52.300000000000004,0.0016567686011232474,0.00024673230810236973,-0.0007630033358847949,0.00024514477077120444,-0.0007585625128747398,-0.00042511208079930285
52.400000000000006,0.0016323578091784192,0.0002395844820548412,-0.0007434802224882529,0.00024676747746412754,-0.0007485848040978553,-0.000413216809229227
52.5,0.0016080491205764707,0.00023259546554554105,-0.0007246615227332532,0.0002480408495460387,-0.0007389559451001213,-0.0004017514963057564
52.6,0.0015838644083834602,0.00022576990605275158,-0.0007065192211685908,0.000248985939076719,-0.0007296626473034472,-0.0003907001773202372
52.7,0.0015598242999525758,0.00021911175343366574,-0.0006890259437586857,0.00024962306715929427,-0.0007206915876674004,-0.00038004716936620596
52.800000000000004,0.0015359481857229668,0.00021262428906475893,-0.0006721549799799034,0.00024997182505925126,-0.0007120294526878566,-0.00036977709047830167
52.900000000000006,0.0015122542313225076,0.00020631015530417414,-0.000655880301799892,0.0002500510770094161,-0.0007036629793054935,-0.00035987487673173245
53.0,0.0014887593927350089,0.00020017138516407567,-0.0006401765796919229,0.0002498789645879301,-0.000695578992808638,-0.0003503257973843345
53.1,0.0014654794342947096,0.00019420943208468838,-0.0006250191958345048,0.00024947291255855567,-0.0006877644418180648,-0.0003411154681429366
53.2,0.0014424289492691357,0.0001884251997048186,-0.0006103842546520648,0.00024884963606190414,-0.0006802064304823354,-0.00033222986265868897
53.300000000000004,0.0014196213827738621,0.00018281907151580356,-0.0005962485908694713,0.00024802514903766825,-0.0006728922480999153,-0.00032365532240498005
53.400000000000006,0.0013970690568294744,0.00017739094032780096,-0.0005825897752007114,0.0002470147737909037,-0.0006658093962263313,-0.00031537856499736107
53.5,0.0013747831974889417,0.00017214023754582536,-0.0005693861176986286,0.00024583315167092977,-0.0006589456131679986,-0.00030738669092170384
53.6,0.0013527739638294284,0.00016706596217573415,-0.000556616668903071,0.00024449425476831874,-0.0006522888959708772,-0.0002996671887581144
53.7,0.0013310504785346803,0.00016216670944336673,-0.0005442612189805771,0.00024301139850363776,-0.0006458275200838407,-0.00029220793902857246
53.800000000000004,0.0013096208598764386,0.0001574406989604179,-0.0005323002949873697,0.00024139725502019896,-0.0006395500567944995,-0.0002849972167459632
53.900000000000006,0.0012884922548119695,0.0001528858023196248,-0.0005207151564704536,0.00023966386724537725,-0.0006334453886254936,-0.0002780236927937794
54.0,0.0012676708729796146,0.00014849957004194026,-0.0005094877895642163,0.00023782266352130913,-0.0006275027228321158,-0.00027127643423625935
54.1,0.0012471620215745813,0.00014427925791470414,-0.0004986008995861928,0.00023588447279647667,-0.0006217116029516285,-0.0002647449035452495
54.2,0.001226970140924307,0.00014022185266372887,-0.000488037902251875,0.00023385954030262604,-0.0006160619185411723,-0.0002584189568399457
54.300000000000004,0.0012070988406885795,0.00013632409696418544,-0.0004777829135653517,0.00023175754367893892,-0.0006105439131153311,-0.00025228884115980564
54.400000000000006,0.0011875509365089306,0.00013258251373598324,-0.0004678207385156768,0.00022958760946386236,-0.0006051481904069884,-0.00024634519085676765
54.5,0.001168328486830618,0.00012899342961261622,-0.0004581368588023681,0.00022735832982132348,-0.0005998657191662832,-0.00024057902324478277
54.6,0.001149432829823743,0.00012555299759124067,-0.000448717419643886,0.00022507777946907014,-0.000594687836537327,-0.0002349817335398163
54.7,0.0011308646203023226,0.00012225721885465547,-0.00043954921573177095,0.0002227535327724171,-0.0005896062500840858,-0.00022954508914183044
54.800000000000004,0.0011126238665597936,0.0001191019637660013,-0.00043061967642709487,0.00022039268094724103,-0.000584613038519324,-0.00022426122329901024
54.900000000000006,0.0010947099669423755,0.00011608299198077586,-0.0004219168502206036,0.00021800184936085606,-0.0005797006512815024,-0.00021912262824694216
55.0,0.001077121746159987,0.00011319597172323277,-0.00041342938872327876,0.0002155872147766486,-0.0005748619069580778,-0.00021412214782853473
55.1,0.0010598574912385162,0.00011043649821685823,-0.0004051465302539556,0.00021315452250680024,-0.000570089990644905,-0.00020925296965365364
55.2,0.0010429149867457145,0.00010780011110288112,-0.0003970580826634957,0.00021070910368814464,-0.0005653784505241671,-0.00020450861696907796
55.300000000000004,0.0010262915497438858,0.00010528231115426877,-0.00038915440629181953,0.00020825589215853692,-0.000560721193335164,-0.00019988294005137804
55.400000000000006,0.0010099840639905136,0.00010287857604880294,-0.00038142639651757716,0.00020579944125792676,-0.0005561124790993876,-0.00019537010733981593
55.5,0.0009939890133801878,0.00010058437524154585,-0.00037386546603472207,0.0002033439404795906,-0.0005515469151497102,-0.0001909645963407674
55.6,0.0009783025145746432,9.839518394851687e-05,-0.00036646352692208233,0.00020089323193776321,-0.000547019449532654,-0.0001866611843459938
55.7,0.0009629203487690911,9.630649625237029e-05,-0.00035921297256752877,0.00019845082662121668,-0.0005425253638479825,-0.00018245493900365066
55.800000000000004,0.0009478379925508846,9.431383734439122e-05,-0.0003521066595037503,0.00019601992040509258,-0.0005380602655885525,-0.0001783412087795155
55.900000000000006,0.0009330506478221634,9.241277492435675e-05,-0.0003451378892417806,0.000193603409777074,-0.0005336200800167605,-0.0001743156133298951
56.0,0.0009185532708168371,9.059892981197338e-05,-0.0003383003903193147,0.00019120390715783285,-0.0005292010415125796,-0.00017037403374801335
56.1,0.0009043406001303018,8.886798575692798e-05,-0.0003315883004786982,0.00018882375587390968,-0.0005247996845434352,-0.00016651260277216747
56.2,0.0008904071837234436,8.721569845874457e-05,-0.000324996148984727,0.0001864650447847622,-0.0005204128343310221,-0.00016272769499871262
56.300000000000004,0.0008767474048787616,8.563790381602133e-05,-0.00031851883911782536,0.00018412962255059774,-0.0005160375972670142,-0.00015901591712841275
56.400000000000006,0.000863355507090524,8.413052542555628e-05,-0.00031215163087496483,0.00018181911152978248,-0.0005116713511267409,-0.00015537409827328055
56.5,0.0008502256178759787,8.268958135320385e-05,-0.00030589012391092055,0.00017953492129447847,-0.0005073117351247416,-0.00015179928034688358
56.6,0.0008373517714995222,8.131119019978082e-05,-0.0002997302408096046,0.00017727826171990205,-0.0005029566397902927,-0.00014828870852287332
56.7,0.0008247279306040326,7.999157648523726e-05,-0.0002936682106891781,0.00017505015565357014,-0.0004986041967262379,-0.00014483982179624158
56.800000000000004,0.0008123480067470532,7.872707537493312e-05,-0.00028770055313425655,0.00017285145117657845,-0.0004942527683198279,-0.0001414502436845241
56.900000000000006,0.0008002058798431607,7.751413677242409e-05,-0.00028182406247383005,0.0001706828334540584,-0.0004899009374421081,-0.00013811777308689189
57.0,0.0007882954165166406,7.634932880331061e-05,-0.00027603579242152184,0.00016854483617316886,-0.0004855474971713092,-0.00013484037531817327
57.1,0.0007766104873747472,7.522934071736266e-05,-0.00027033304109325796,0.00016643785256769046,-0.0004811914405713978,-0.0001316161733321011
57.2,0.0007651449832158363,7.415098523620452e-05,-0.00026471333645092227,0.0001643621460086631,-0.00047683195052245744,-0.00012844343912765416
57.300000000000004,0.0007538928301915613,7.31112003759867e-05,-0.0002591744222076871,0.00016231786014859692,-0.0004724683896068735,-0.00012532058533705855
57.400000000000006,0.0007428480039308369,7.210705076607469e-05,-0.0002537142441570857,0.0001603050286492954,-0.0004681002901201554,-0.00012224615703141685
57.5,0.0007320045426443747,7.113572849010697e-05,-0.00024833093693100235,0.00015832358449829222,-0.00046372734423146293,-0.00011921882375466776
57.6,0.0007213565592297109,7.01945534752882e-05,-0.00024302281119151933,0.00015637336891838688,-0.00045934939431476065,-0.00011623737179302492
57.7,0.000710898252398524,6.92809734553187e-05,-0.000237788341258835,0.0001544541398765185,-0.00045496642347190604,-0.00011330069668815884
57.800000000000004,0.0007006239168560564,6.839256353617033e-05,-0.00023262615319394854,0.000152565580188309,-0.00045057854624918763,-0.00011040779599004225
57.900000000000006,0.0006905279525711804,6.752702539717647e-05,-0.0002275350133888454,0.00015070730519483775,-0.00044618599951423503,-0.00010755776222566369
58.0,0.0006806048731509951,6.668218614489619e-05,-0.00022251381761252863,0.00014887887004910562,-0.0004417891335550561,-0.00010474977611551868
58.1,0.0006708493133445314,6.58559968420759e-05,-0.00021756158050242856,0.00014707977662566053,-0.00043738840342239855,-0.0001019831000454044
58.2,0.000661256035704745,6.504653073611257e-05,-0.00021267742549819076,0.00014530948006136098,-0.00043298436052650934,-9.925707179545034e-05
58.300000000000004,0.0006518199364382673,6.425198121015622e-05,-0.0002078605752116587,0.00014356739493764863,-0.00042857764449894534,-9.657109852791103e-05
58.400000000000006,0.0006425360504735504,6.347065948006278e-05,-0.00020311034222865484,0.00014185290111319492,-0.0004241689753281338,-9.392465103396223e-05
58.5,0.0006333995557664707,6.270099205258074e-05,-0.00019842612035045391,0.00014016534920819894,-0.0004197591457831796,-9.13172582432888e-05
58.6,0.0006244057767354356,6.194151788733491e-05,-0.00019380737644641578,0.00013850406564635244,-0.00041534901422516366,-8.874850205012058e-05
58.7,0.0006155501869345798,6.119088533038313e-05,-0.00018925364283448414,0.00013686835731054232,-0.00041093949774926637,-8.621801241656198e-05
58.800000000000004,0.0006068284113523499,6.044784904377487e-05,-0.00018476450984917692,0.0001352575160173333,-0.0004065315653742977,-8.372546258345577e-05
58.900000000000006,0.0005982362282371154,5.9711266870539364e-05,-0.00018033961869792,0.00013367082275485165,-0.0004021262313900471,-8.127056445048784e-05
59.0,0.00058976957034845,5.8980096574790456e-05,-0.00017597865471467492,0.00013210755162455939,-0.0003977245489752791,-7.885306418869617e-05
59.1,0.0005814245255869566,5.8253392430023664e-05,-0.00017168134103359776,0.00013056697347866466,-0.00039332760414485,-7.647273811527181e-05
59.2,0.0005731973370516222,5.753030168436425e-05,-0.0001674474327910626,0.00012904835919475487,-0.00038893651006492513,-7.412938884901722e-05
59.300000000000004,0.000565084402457972,5.681006086454422e-05,-0.00016327671164648196,0.00012755098271637373,-0.000384552401702615,-7.182284172202473e-05
59.400000000000006,0.0005570822732212654,5.6091992093297585e-05,-0.00015916898073129815,0.00012607412379899476,-0.00038017643071772215,-6.955294138951257e-05
59.5,0.0005491876532053565,5.537549941557047e-05,-0.00015512405997752216,0.00012461707049516625,-0.0003758097605965323,-6.731954863406069e-05
59.6,0.000541397396806117,5.466006493984557e-05,-0.00015114178154460918,0.00012317912154701657,-0.00037145356207939366,-6.512253739145274e-05
59.7,0.0005337085070082724,5.394524516125637e-05,-0.0001472219858866463,0.00012175958837123487,-0.0003671090088283672,-6.296179196283035e-05
59.800000000000004,0.0005261181330143231,5.3230667226822435e-05,-0.00014336451806449052,0.00012035779687394904,-0.0003627772733631584,-6.083720442667693e-05
59.900000000000006,0.0005186235675207656,5.25160251835255e-05,-0.0001395692243258479,0.00011897308908485801,-0.00035845952326135405,-5.874867224474972e-05
60.0,0.0005112222436778693,5.180107622648017e-05,-0.00013583594894675302,0.00011760482461729476,-0.00035415691761857347,-5.669609605649512e-05
60.1,0.0005039117317637503,5.108563696076661e-05,-0.0001321645313241533,0.00011625238196302093,-0.00034987060376243356,-5.4679377654974746e-05
60.2,0.0004966897356097104,5.036957969362093e-05,-0.0001285548033220189,0.00011491515962308013,-0.0003456017142154746,-5.2698418138693845e-05
60.300000000000004,0.0004895540908367989,4.9652829927238374e-05,-0.0001250065854906409,0.00011359257788344428,-0.0003413513621855455,-5.075311523067795e-05
60.400000000000006,0.00048345296752800063,4.9477421326080165e-05,-0.00012081786666869776,0.00011269404535895095,-0.00033629270141594467,-4.835963343044984e-05
60.5,0.00047994782769261615,5.071598412145389e-05,-0.00011483722706729864,0.00011288540429078153,-0.00032905154183052697,-4.472157241703712e-05
60.6,0.0004809610411305959,5.441639411764041e-05,-0.00010565294672741783,0.00011497465937313808,-0.0003179185444762919,-3.8858601125787744e-05
60.7,0.0004885888339656356,6.168942043440617e-05,-9.173319935476158e-05,0.00011982798644053241,-0.00030100839977932874,-2.970220017778631e-05
60.800000000000004,0.0005049645396113457,7.362918367240847e-05,-7.152853238691542e-05,0.0001283090316499944,-0.0002763779816179542,-1.6166002168695058e-05
60.900000000000006,0.0005321604530990883,9.125852556313484e-05,-4.3545349251290036e-05,0.00014123606894599617,-0.00024211281857612946,2.80344431577736e-06
61.0,0.000572119207283251,0.00011549317905454452,-6.397157953714968e-06,0.0001593528023184088,-0.0001963891404592344,2.8190962649953172e-05
61.1,0.0006266076144936951,0.00014712000861173314,4.116115591953731e-05,0.00018330953865723022,-0.00013751714993943343,6.088856672807342e-05
61.2,0.0006971875080684108,0.00018678567254175413,0.00010021195391762522,0.00021365219237327057,-6.396990838869583e-05,0.00010168007394958951
61.300000000000004,0.0007851993544827254,0.0002349928998248814,0.00017166320374703824,0.0002508171529713746,2.5598752423120962e-05,0.0001512323851647165
61.400000000000006,0.0008917553754707096,0.00029210223186906077,0.000256244124358947,0.0002951304927545762,0.0001323446458422219,0.000210091780540327
61.5,0.0010177396709118616,0.000358337590003818,0.0003545062228076157,0.0003468103377496941,0.00025722991883471576,0.0002786839500303537
61.6,0.0011638134173742804,0.00043379442605380496,0.000466828259255669,0.00040597149424759406,0.00040102442035047295,0.0003573167652012039
61.7,0.001330423672170888,0.0005184495216204396,0.0005934240125784029,0.0004726316337588617,0.0005643105164922183,0.0004461850244697819
61.800000000000004,0.0015178146637639292,0.0006121717391376054,0.0007343519791469837,0.0005467185023133524,0.0007474903983800344,0.0005453765787387066
61.900000000000006,0.0017260407211119927,0.0007147332109413547,0.0008895263399427793,0.0006280777472109162,0.0009507951460439664,0.0006548793810390775
62.0,0.001954980203967115,0.0008258205930432872,0.0010587286885093607,0.0007164810532174358,0.0011742949807839454,0.0007745891102648268
62.1,0.002204349956618632,0.0009450461172192751,0.0012416201341244385,0.0008116343568468264,0.001417910269605194,0.0009043171018520273
62.2,0.0024737199307521824,0.0010719582562760557,0.0014377534893846129,0.0009131859669864404,0.0016814229475603246,0.0010437983828680397
62.300000000000004,0.00276252771687373,0.001206051878432924,0.001646585324800527,0.0010207344662487405,0.001964488103141849,0.0011926996591886132
62.400000000000006,0.003070092794948962,0.0013467778123239695,0.0018674877298555023,0.001133836303095812,0.002266645533476119,0.0013506271414885631
62.5,0.0033956303688118584,0.0014935517778221703,0.002099759664058516,0.0012520130123439273,0.002587331123990272,0.0015171341271526687
62.6,0.003738264689415786,0.0016457626624342928,0.0023426378155737603,0.0013747580228451507,0.002925887944409501,0.0016917282787772636
62.7,0.004097041802076146,0.0018027801404813118,0.0025953069111071154,0.0015015430272768866,0.003281576981609464,0.001873878558075716
62.800000000000004,0.004470941675727028,0.0019639616448217435,0.002856909441223778,0.0016318239015036592,0.0036535874525072736,0.0020630217882705052
62.900000000000006,0.004858889688876299,0.0021286587092890765,0.0031265547808118606,0.0017650461703552357,0.004041046657526433,0.0022585688289270558
63.0,0.005259767459017285,0.002296222705418379,0.003403327696157263,0.0019006500236270595,0.004443029348463335,0.0024599103554447787
63.1,0.00567242301112456,0.0024660100003658595,0.0036862962390869594,0.002038074891303583,0.00485856659491054,0.002666422241755566
63.2,0.006095680287723849,0.002637386564967609,0.003974519035750446,0.0021767635909784545,0.005286654141710461,0.0028774705497820164
63.300000000000004,0.006528348007652758,0.002809732061584757,0.004267051982665401,0.002316166063125869,0.005726260256018981,0.003092416132789233
63.400000000000006,0.006969227884132217,0.002982443441443062,0.004562954366506044,0.002455742711786792,0.006176333067374268,0.0033106188624907242
63.5,0.007417122215438211,0.0031549380808008815,0.004861294427003965,0.0025949673695330644,0.006635807407948063,0.0035314414918105855
63.6,0.007870840863123453,0.0033266564843988924,0.005161154384140367,0.0027333299062079087,0.007103611162776217,0.003754253166505239
63.7,0.008329207634320053,0.0034970645838122007,0.005461634952289363,0.00287033850136542,0.007578671142021974,0.0039784325998884935
63.800000000000004,0.008791066085871378,0.003665655657383535,0.005761859364922485,0.003005521600436119,0.008059918489014837,0.004203370925577115
63.900000000000006,0.00925528476892103,0.0038319518973841424,0.006060976933972854,0.0031384295744778627,0.008546293638989788,0.004428474243525076
64.0,0.009720761933234925,0.003995505648992526,0.006358166168079508,0.003268636102995237,0.0090367508442373,0.004653165874717638
64.10000000000001,0.010186429711280568,0.004155900344784898,0.006652637473995708,0.003395739298909573,0.009530262282084773,0.004876888339945686
64.2,0.01065125780265654,0.00431275115752975,0.006943635465250929,0.0035193625942235886,0.010025821762555197,0.00509910507795859
64.3,0.01111425668001745,0.00446570539325836,0.00723044090186328,0.0036391554043440793,0.010522448052859283,0.005319301918105184
64.4,0.011574480337949224,0.004614442645707953,0.007512372284368102,0.0037547935883252216,0.011019187835915706,0.005536988322229417
64.5,0.012031028606461963,0.004758674732382062,0.007788787124776622,0.003865979721542723,0.011515118319995772,0.005751698410172933
64.60000000000001,0.012483049051512951,0.004898145431997253,0.008059082916840597,0.003972443196819128,0.012009349516912581,0.005962991783076941
64.7,0.012929738484814825,0.005032630042148841,0.008322697827054344,0.004073940169136404,0.012501026205731259,0.0061704541580798996
64.8,0.01337034410559712,0.005161934775480728,0.008579111127358503,0.00417025335848888,0.01298932959902699,0.006373697827713068
64.9,0.013804164296779643,0.005285896011786984,0.008827843389586278,0.004261191724598884,0.013473478728262317,0.006572361956719815
65.0,0.014230549098087183,0.005404379422826836,0.009068456461024697,0.0043465900265573,0.013952731564638712,0.006766112728604206
65.10000000000001,0.014648900378558179,0.005517278985943444,0.009300553239741332,0.004426308279778148,0.014426385891490283,0.006954643353765797
65.2,0.01505867173064339,0.00562451590182055,0.009523777267572447,0.004500231121982841,0.01489377994405561,0.0071376739506772285
65.3,0.015459368103319264,0.00572603742840731,0.009737812154274592,0.004568267097155672,0.015354292827977895,0.0073149513087068345
65.4,0.01584922928346121,0.0058210621553511765,0.00994133124782193,0.0046297367426647055,0.015806168812857915,0.007485566376613413
65.5,0.01622581848052547,0.005908441116366083,0.010132470796546613,0.004683656211189194,0.01624702422103639,0.007648257246101387
65.60000000000001,0.01658641340681299,0.005986893222000272,0.010309143941411142,0.0047289241336158465,0.016674187221308093,0.007801610811802207
65.7,0.016928262017526525,0.0060551551050397915,0.010469245688870966,0.004764442345418709,0.01708492287022911,0.007944194979801115
65.8,0.01724874568142953,0.006112072935006861,0.010610783364906385,0.0047891915450555414,0.01747657942953807,0.008074643367205382
65.9,0.01754547920179879,0.006156655111221066,0.010731956284916864,0.004802276368455613,0.01784668076398758,0.008191707590746444
66.0,0.017816367921498547,0.00618809879314995,0.010831200964663801,0.004802949829006868,0.018192981897797892,0.00829428752770824
66.10000000000001,0.0180596358314278,0.006205799139507352,0.010907213099799891,0.004790623952949155,0.018513499491549526,0.008381446688329436
66.2,0.018273834258345115,0.0062093473209362746,0.010958954031862247,0.004764871293712864,0.01880652534026565,0.008452417606020468
66.3,0.018457837720480017,0.006198521444783752,0.010985647002405705,0.004725420532565357,0.01907062847229623,0.008506600615507719
66.4,0.018610831482043184,0.006173273207630339,0.01098676683234241,0.004672148357266111,0.01930464969107459,0.008543558331492342
66.5,0.018732293922210968,0.006133712183873393,0.010962025518388057,0.004605069112767697,0.0195076912058855,0.008563007413485786
66.60000000000001,0.018821975857340745,0.006080089034944186,0.010911355449000192,0.004524323237905503,0.01967910317269577,0.00856480870177165
66.7,0.018879878281163116,0.0060127784953411725,0.010834891398511393,0.004430165172131342,0.019818468397367357,0.008548956464933921
66.8,0.01890622952175077,0.0059322626972147935,0.010732952083547504,0.0043229511896465,0.019925586061145594,0.008515567262196325
66.9,0.01890146249149147,0.005839115192901521,0.010606021807749392,0.0042031274626242,0.020000455057418293,0.00846486876051076
67.0,0.018866192482051455,0.005733985895544518,0.010454732542617775,0.004071218548170409,0.02004325734113966,0.0083971887336179
67.10000000000001,0.018801195800542764,0.00561758706248367,0.010279846669631242,0.003927816420374458,0.020054341562612685,0.008312944392700599
67.2,0.01870738943526176,0.005490680381208393,0.010082240524874485,0.003773570119001554,0.02003420716804327,0.008212632145115755
67.3,0.018585811862680608,0.005354065172716882,0.009862888828525842,0.003609176051747161,0.019983489086087217,0.00809681784035024
67.4,0.018437605054412828,0.005208567697219506,0.00962285004162041,0.0034353689637761442,0.01990294307620214,0.00796612753693679
67.5,0.018263997706003936,0.00505503152740373,0.009363252665284483,0.0032529135727195307,0.01979343178446547,0.007821238806635737
67.60000000000001,0.01806628968316652,0.004894308941489817,0.009085282478675342,0.0030625968567040787,0.01965591153100174,0.007662872579947406
67.7,0.017845837662786763,0.004727253280294542,0.008790170698958542,0.0028652209760046607,0.019491419837987484,0.007491785528575385
67.8,0.01760404193378471,0.004554712208242268,0.008479183038308783,0.0026615968046214897,0.01930106369680347,0.007308762974859985
67.9,0.017342334314298172,0.00437752181620594,0.008153609627164039,0.0024525380453126336,0.019086008565251285,0.007114612314226994
68.0,0.01706216713588502,0.0041965015036950154,0.007814755769188714,0.0022388558999901233,0.018847468080200037,0.0069101569339593775
68.10000000000001,0.01676500324273617,0.004012449579311551,0.007463933491850226,0.002021354267050087,0.018586694467854516,0.006696230610253064
68.2,0.01645230695121615,0.0038261395197423977,0.007102453854700749,0.0018008254366800906,0.018304969630434934,0.00647367236401871
68.3,0.01612553591445854,0.0036383168300339924,0.006731619977117868,0.0015780462555004483,0.018003596886256204,0.006243321755320068
68.4,0.01578613383741224,0.003449696450981894,0.00635272074780116,0.0013537747326965686,0.017683893339400486,0.006006014596341891
68.5,0.015435523988022587,0.003260960662184053,0.005967025178305408,0.0011287470602320657,0.01734718285380429,0.005762579062416148
68.60000000000001,0.015075103451828583,0.0030727574326393035,0.005575777363887727,0.000903675020734163,0.016994789606386784,0.005513832180947209
68.7,0.01470623807864516,0.0028856991738159237,0.005180192015665066,0.0006792437574488079,0.016628032193429967,0.0052605766782336544
68.8,0.014330258072067979,0.0027003618533901867,0.004781450529234085,0.0004561098816972428,0.0162482182644944,0.005003598164608327
68.9,0.01394845417466443,0.002517284430991035,0.004380697556096227,0.00023489989429355894,0.015856639658360143,0.004743662638797444
69.0,0.013562074403724231,0.002336968580185404,0.003979038045294305,1.620889830815354e-05,0.015454568015644788,0.0044815142928313415
69.10000000000001,0.013172321294698896,0.0021598786638196464,0.0035775347238744246,-0.00019940041845018468,0.015043250843076042,0.004217873599345423
69.2,0.01278034961181088,0.0019864419326091017,0.003177205986079394,-0.00041139855184499537,0.01462390800489663,0.00395343566369987
69.3,0.012387264487615792,0.0018170489194631375,0.0027790241625097376,-0.000619289720309995,0.01419772861754587,0.003688868824013644
69.4,0.011994119955565631,0.0016520540044618144,0.0023839141416986246,-0.0008226121929008619,0.013765868324252957,0.0034248134827506143
69.5,0.011601917841832824,0.001491776127665311,0.0019927523178144843,-0.0010209384242237211,0.013329446926872839,0.003161881154141756
69.60000000000001,0.011211606984764155,0.001336499629017864,0.0016063658394228364,-0.0012138750130630043,0.01288954635298302,0.002900653712349358
69.7,0.01082408275242127,0.001186475196563769,0.0012255321354569327,-0.0014010625006459475,0.012447208936996185,0.002641682825913987
69.8,0.0104401868306925,0.0010419209060107744,0.0008509786957361702,-0.0015821750236236676,0.012003435994762448,0.0023854895646319716
69.9,0.010060707256606813,0.0009030233364676094,0.0004833830845107202,-0.001756919836033416,0.011559186671661722,0.0021325641654901086
70.0,0.009686378672952557,0.0007699387484963748,0.00012337316666641794,-0.0019250367136900018,0.011115377045312479,0.0018833659451052225
70.10000000000001,0.009317882781903316,0.0006427943119416403,-0.000228472472675647,-0.002086297253680229,0.01067287946492668,0.0016383233467899493
70.2,0.008955848977591826,0.0005216893726263586,-0.000571623933429407,-0.0022405040809262934,0.010232522109469037,0.0013978341105663926
70.3,0.008600855138682114,0.0004066967479103758,-0.00090559924790268,-0.002387489973055529,0.009795088747969484,0.0011622655552737209
70.4,0.008253428563165542,0.0002978640420112344,-0.001229963486475286,-0.002527116914125941,0.009361318686348177,0.0009319549626200759
70.5,0.007914047029615215,0.0001952149733367872,-0.0015443277369067638,-0.0026592750871141857,0.008931906885203112,0.0007072100531757474
70.60000000000001,0.0075831399698524,9.875070663212581e-05,-0.0018483479716832323,-0.0027838818144455594,0.00850750423421795,0.0004883095451113782
70.7,0.007261089739624709,8.451183814772018e-06,-0.0021417238169207445,-0.002900880455227695,0.008088717969154365,0.0002755037867454016
70.8,0.006948232973987707,-7.572355249075156e-05,-0.0024241972355533966,-0.0030102392672965543,0.007676112218930403,6.901545495290865e-05
70.9,0.0066448620164287426,-0.00015383204726830972,-0.0026955511366774836,-0.0031119502415927203,0.007270208669814185,-0.00013095968873029864
71.0,0.0063512264106469875,-0.00022595013785848883,-0.0029556079222034185,-0.0032060279158807113,0.006871487335335007,-0.0003242519914739156
71.10000000000001,0.006067534445184992,-0.0002921696789370778,-0.0032042279812248835,-0.003292508174307108,0.00648038742073863,-0.0005107170589676931
71.2,0.005793954741788126,-0.00035259729110216544,-0.003441308141823247,-0.0033714470388099926,0.006097308271523086,-0.000690234868186919
71.3,0.005530617879039836,-0.0004073531360423764,-0.003666780089361838,-0.003442919457927506,0.005722610396224744,-0.0008627088491863401
71.4,0.005277618043492884,-0.00045656972085975225,-0.003880608759692059,-0.003507018098109914,0.005356616554187195,-0.0010280649416191938
71.5,0.005035014701385266,-0.0005003907336149977,-0.004082790715078928,-0.0035638521422095225,0.004999612899399941,-0.0011862506314246314
71.60000000000001,0.004802834284244931,-0.0005389699120442067,-0.004273352510091296,-0.0036135460994261674,0.004651850172267504,-0.0013372339726241806
71.7,0.004581071882177454,-0.0005724699471159816,-0.004452349054155318,-0.003656238630601687,0.004313544931686693,-0.0014810025988227324
71.8,0.0043696929391710765,-0.0006010614227927595,-0.004619861976944593,-0.0036920813923876873,0.003984880820243224,-0.0016175627287151524
71.9,0.004168634945178063,-0.0006249217931262159,-0.004775998002283038,-0.003721237903461696,0.0036660098558086215,-0.0017469381695853878
72.0,0.00397780912057827,-0.0006442343973426698,-0.0049208873354936395,-0.0037438824354759396,0.0033570537434458743,-0.0018691693223786855
72.10000000000001,0.0037971020888336753,-0.0006591875134834784,-0.005054682068826292,-0.0037601989311986245,0.0030581052017828497,-0.0019843121917475495
72.2,0.0036263775315196673,-0.0006699734521204083,-0.005177554610501626,-0.003770379952793905,0.002769229297319116,-0.002092437404851618
72.3,0.0034654778227554404,-0.0006767876900216164,-0.005289696140612365,-0.0037746256617805308,0.00249046478230512,-0.0021936292413635367
72.4,0.0033142256399032546,-0.0006798280437734952,-0.005391315097065323,-0.0037731428321414393,0.002221825431891748,-0.0022879846770749008
72.5,0.0031724255471870695,-0.0006792938835230125,-0.005482635694777613,-0.003766143898041524,0.0019633013762022865,-0.002375612443500103
72.60000000000001,0.003039865548733708,-0.0006753853871142827,-0.005563896481337037,-0.0037538460375742444,0.00171486042296059,-0.0024566321058592036
72.7,0.0029163186084149957,-0.0006683028344100994,-0.005635348931472887,-0.0037364702934174665,0.0014764493671952281,-0.0025311731612682816
72.8,0.0028015441339848857,-0.0006582459415572732,-0.005697256082466182,-0.003714240731125606,0.0012479952847531267,-0.0025993741588166822
72.9,0.0026952894232033357,-0.000645413234875877,-0.005749891212352656,-0.0036873836356016826,0.0010294068066273511,-0.002661381843028723
73.0,0.0025972910702791304,-0.0006300014637211561,-0.005793536562225822,-0.0036561267459527358,0.0008205753702259616,-0.002717350322706348
73.10000000000001,0.002507276328132847,-0.0006122050533351897,-0.005828482105689927,-0.0036206985299415,0.0006213764493470499,-0.0027674402637842535
73.2,0.0024249644289034,-0.0005922155947259448,-0.005855024363799671,-0.003581327496452978,0.0004316707536407155,-0.0028118181113474137
73.3,0.002350067857953546,-0.0005702213728461006,-0.005873465268460749,-0.003538241547131365,0.0002513054009326714,-0.002850655338432103
73.4,0.002282293581003803,-0.0005464069318130876,-0.0058841110742768625,-0.003491667366563181,8.011505894370713e-05,-0.002884127723311881
73.5,0.002221344222742954,-0.0005209526767113395,-0.005887271319638409,-0.0034418298508597954,-8.20769443742923e-05,-0.0029124146553527455
73.60000000000001,0.0021669191966437558,-0.0004940345107645906,-0.005883257836769215,-0.0033889515738556334,-0.00023545754452900813,-0.002935698470618934
73.7,0.0021187157838696933,-0.00046582350778290896,-0.0058723838117168605,-0.0033332522908889337,-0.00038022289720810186,-0.002954163816238315
73.8,0.002076430162020167,-0.0004364856181746553,-0.005854962893198523,-0.003274948478912307,-0.0005165773714062603,-0.0029679970451313214
73.9,0.0020397583830711794,-0.00040618140768847584,-0.005831308350211232,-0.0032142529122801636,-0.0006447325794751243,-0.00297738564098866
74.0,0.0020083973000596172,-0.00037506582798910713,-0.005801732278107377,-0.0031513742734452363,-0.0007649064445490707,-0.0029825176733432658
74.10000000000001,0.0019820454414694916,-0.00034328801855592136,-0.005766544853100984,-0.003086516797960462,-0.0008773223045154294,-0.002983581281822763
74.2,0.0019604038336780275,-0.00031099113862829064,-0.005726053634390645,-0.003019879952733682,-0.0009822080534192042,-0.002980764189694299
74.3,0.0019431767717908326,-0.00027831222799949376,-0.005680562913064684,-0.002951658146486437,-0.0010797953207925964,-0.0029742532465718632
74.4,0.0019300725391105595,-0.00024538209556737985,-0.00563037310695659,-0.002882040471385099,-0.0011703186889466832,-0.002964233999886874
74.5,0.0019208040753950061,-0.00021232523465402616,-0.005575780200567737,-0.002811210474799099,-0.0012540149478894435,-0.0029508902945056046
74.60000000000001,0.0019150895946438132,-0.00017925976382153393,-0.005517075229010682,-0.00273934596006225,-0.001331122387922402,-0.0029344039001114224
74.7,0.001912653153153595,-0.0001462973919695326,-0.005454543804875653,-0.002666618815102118,-0.001401880129727677,-0.002914954165831073
74.8,0.001913225168420873,-0.00011354340664636122,-0.005388465686918531,-0.0025931948678190268,-0.0014665274913322084,-0.002892717701338435
74.9,0.001916542890276415,-8.109668409560091e-05,-0.005319114389257731,-0.002519233766992529,-0.0015253033920436456,-0.0028678680840957395
75.0,0.001922350824521489,-4.904972025847351e-05,-0.0052467568299884955,-0.0024448888876432745,-0.0015784457919652039,-0.0028405755915186614
75.10000000000001,0.0019304011107665155,-1.7488681172617802e-05,-0.005171653017786497,-0.0023703072596012375,-0.0016261911671495136,-0.002811006957724449
75.2,0.0019404538555936855,1.35065283975087e-05,-0.005094055775186058,-0.0022956295181190897,-0.0016687740196087615,-0.002779325154028744
75.3,0.0019522774221996464,4.386217923370138e-05,-0.005014210497203642,-0.002220989875382266,-0.0017064264212787107,-0.002745689192298514
75.4,0.0019656486780019414,7.351061611618935e-05,-0.0049323549438897865,-0.002146516111736886,-0.0017393775912716498,-0.002710253950420047
75.5,0.0019803532016467755,0.00010239014165239428,-0.004848719065405203,-0.0020723295854853663,-0.0017678535055690714,-0.0026731700190435153
75.60000000000001,0.0019961854509147553,0.0001304448866659385,-0.004763524858204762,-0.001998545260113684,-0.0017920765382584464,-0.0026345835687503556
75.7,0.002012948893078906,0.00015762466831593372,-0.004676986250906539,-0.0019252717478311274,-0.0018122651333831363,-0.002594636236781465
75.8,0.002030456099319306,0.0001838848371001928,-0.004589309018418985,-0.001852611368321614,-0.0018286335064471887,-0.0025534650324614333
75.9,0.002048528804983076,0.00020918611395705266,-0.004500690722884674,-0.001780660221616942,-0.0018413913747446263,-0.0025112022605422
76.0,0.002066997937363466,0.0002334944185697484,-0.004411320680022286,-0.001709508274036372,-0.0018507437155067992,-0.0024679754615981146
76.10000000000001,0.0020857036126218885,0.0002567806899078941,-0.004321379949469882,-0.0016392394561681848,-0.00185689055076661,-0.0024239073685624842
76.2,0.0021044951035695497,0.00027902070005636747,-0.004231041347736065,-0.0015699317718901064,-0.0018600267579058113,-0.0023791158785495376
76.3,0.002123230780034605,0.0003001948623492347,-0.00414046948238362,-0.0015016574174538386,-0.0018603419048418145,-0.0023337140391136574
76.4,0.002141778023540665,0.0003202880347908185,-0.004049820806090762,-0.0014344829096889138,-0.0018580201088053325,-0.002287810048108594
76.5,0.0021600131180407977,0.00033928931972239656,-0.003959243689256482,-0.0013684692224105062,-0.0018532399176781778,-0.0022415072663330834
76.60000000000001,0.0021778211185687433,0.0003571918607274415,-0.0038688785098274247,-0.0013036719301387368,-0.0018461742129978623,-0.002194904242243689
76.7,0.0021950956994178264,0.00037399263759191917,-0.0037788577590793324,-0.001240141358285268,-0.0018369901334966523,-0.0021480947478866694
76.80000000000001,0.002211738983491973,0.00038969226012860656,-0.0036893061621104104,-0.001177922738992401,-0.0018258490181092067,-0.0021011678252540497
76.9,0.0022276613544727902,0.00040429476164870854,-0.0036003408118333922,-0.0011170563718414614,-0.001812906367419219,-0.002054207842303172
77.0,0.002242781253412742,0.0004178073928199817,-0.0035120713152871946,-0.0010575777886806543,-0.001798311822525532,-0.002007294557897555
77.10000000000001,0.0022570249613260303,0.0004302404166062105,-0.003424599951125591,-0.0009995179218574264,-0.001782209160322562,-0.001960503194947578
77.2,0.002270326369329336,0.00044160690495106844,-0.0033380218371751,-0.0009429032751726932,-0.0017647363042224008,-0.0019139045210604538
77.30000000000001,0.0022826267378526985,0.0004519225378323335,-0.0032524251069919207,-0.0008877560969082129,-0.0017460253493763419,-0.001867564936038258
77.4,0.0022938744463231442,0.00046120540522753443,-0.0031678910943911368,-0.000834094554314524,-0.0017262026014119472,-0.0018215465655493372
77.5,0.0023040247347067494,0.000469475812508565,-0.003084494524959434,-0.0007819329089797021,-0.0017053886277514578,-0.0017759073603386424
77.60000000000001,0.002313039438241313,0.0004767560897387542,-0.0030023037136017107,-0.0007312816925314931,-0.0016836983206009962,-0.001730701200366888
77.7,0.002320886716639498,0.0004830704053054664,-0.0029213807672133683,-0.0006821478821587618,-0.0016612409707218658,-0.0016859780032912677
77.80000000000001,0.002327540778983496,0.0004884445842773828,-0.0028417817916090472,-0.0006345350754691221,-0.001638120351120016,-0.0016417838367247923
77.9,0.0023329816056613267,0.0004929059319420111,-0.0027635571017447557,-0.0005884436641532706,-0.0016144348096960874,-0.0015981610336652952
78.0,0.0023371946686062796,0.0004964830629181868,-0.0026867514343351683,-0.0005438710059721944,-0.001590277369953852,-0.001555148310527959
78.10000000000001,0.002340170650196647,0.0004992057357140356,-0.0026114041626703836,-0.0005008115950008395,-0.0015657358395280607,-0.0015127808876125462
78.2,0.0023419051617088182,0.0005011046929184262,-0.002537549513004936,-0.0004592572298111958,-0.0015408929258522949,-0.0014710906115814558
78.30000000000001,0.002342398462790842,0.0005022115075408996,-0.002465216781412464,-0.00041919717900395885,-0.0015158263577889123,-0.001430106079240139
78.4,0.0023416551829020687,0.0005025584357059238,-0.0023944305504115136,-0.0003806183437461224,-0.0014906090124478882,-0.0013898527621591986
78.5,0.0023396840456715016,0.0005021782759100823,-0.002325210904651278,-0.00034350541696817795,-0.0014653090463970658,-0.001350353131670764
78.60000000000001,0.0023364975965012957,0.0005011042346932625,-0.002257573645462942,-0.0003078410391798173,-0.0014399900309842865,-0.0013116267840824368
78.7,0.0023321119341024664,0.0004993697987921483,-0.002191530503771829,-0.0002736059506835065,-0.001414711091178907,-0.0012736905657712157
78.80000000000001,0.002326546446661171,0.00049700861385545,-0.0021270893508428244,-0.00024077913995434411,-0.0013895270472868764,-0.0012365586977941085
78.9,0.0023198235533685337,0.0004940543698233796,-0.002064254406290514,-0.00020933798793420924,-0.0013644885588482542,-0.0012002428996311313
79.0,0.0023119684518392134,0.0004905406929586358,-0.0020030264429524757,-0.00017925840808877936,-0.0013396422701981115,-0.0011647525117830897
79.10000000000001,0.002303008871800243,0.00048650104444028866,-0.0019434029881968899,-0.00015051498206187776,-0.0013150309574456592,-0.0011300946171110026
79.2,0.002292974835424612,0.00048196862543822437,-0.0018853785219160727,-0.00012308109116038098,-0.0012906936757005846,-0.0010962741602639939
79.30000000000001,0.0022818984247634216,0.00047697628863976107,-0.0018289446698509112,-9.692904296207775e-05,-0.001266665907360628,-0.001063294065713735
79.4,0.002269813556565914,0.00047155645611324454,-0.0017740903929060606,-7.20301935237069e-05,-0.001242979709862828,-0.0010311553534946988
79.5,0.0022567557647973488,0.00046574104341555494,-0.0017208021717531,-4.8355064864063346e-05,-0.0012196638630511422,-0.0009998572527867944
79.60000000000001,0.002242761991077592,0.0004595613898095429,-0.0016690641867341126,-2.587345781835919e-05,-0.0011967440155488613,-0.0009693973130279168
79.7,0.0022278703832422204,0.00045304819445568913,-0.0016188584927080431,-4.554560142224152e-06,-0.001174242829986851,-0.0009397715125187886
79.80000000000001,0.002212120102151572,0.00044623145840934147,-0.0015701651889861849,1.5632949961483234e-05,-0.0011521801264018532,-0.0009109743641689157
79.9,0.0021955511369064987,0.00043914043228457763,-0.0015229625837644672,3.472080515348617e-05,-0.0011305730240412188,-0.000882999018577141
80.0,0.0021782041285722305,0.0004318035694233692,-0.0014772273529904411,5.274105505505024e-05,-0.0011094360812611327,-0.0008558373643152545
80.10000000000001,0.002160120202468293,0.00042424848439432994,-0.001432934693578634,6.97259770948401e-05,-0.001088781433270722,-0.000829480125323695
80.2,0.0021413408090482635,0.00041650191663653,-0.0013900584709099877,8.570799205806555e-05,-0.0010686189274935235,-0.000803916955339988
80.30000000000001,0.002121907573283482,0.00040858969901243724,-0.0013485713607961423,0.00010071958414901431,-0.0010489562560204264,-0.0007791365291080947
80.4,0.002101862152502219,0.00040053673106767146,-0.0013084449859213487,0.00011479322547904982,-0.001029799084911274,-0.0007551266302853821
80.5,0.002081246102692503,0.0003923669568388889,-0.0012696500465671533,0.0001279613050158256,-0.0010111511804431986,-0.0007318742361644778
80.60000000000001,0.0020601007531873207,0.0003841033470093963,-0.0012321564456160982,0.00014025606191753895,-0.0009930145321732958,-0.0007093655991903626
80.7,0.0020384670896279105,0.00037576788520909634,-0.0011959334078475096,0.0001517095231688715,-0.0009753894726995667,-0.0006875863252621901
80.80000000000001,0.0020163856450522368,0.0003673815582387904,-0.0011609495935802452,0.00016235344541190892,-0.0009582747939625085,-0.0006665214487852818
80.9,0.0019938963988888705,0.00035896434997071064,-0.0011271732067738034,0.00017221926083549918,-0.0009416678598564044,-0.000646155504395602
81.0,0.0019710386837687925,0.0003505352387648799,-0.0010945720975773213,0.00018133802705966822,-0.0009255647152208508,-0.000626472595456395
81.10000000000001,0.0019478510999864534,0.0003421121982023577,-0.0010631138593861392,0.00018974038091261496,-0.0009099601911747386,-0.0006074564593612654
81.2,0.0019243714374222918,0.0003337122009351493,-0.001032765920482709,0.0001974564959900161,-0.0008948480067542617,-0.0005890905296765853
81.30000000000001,0.0019006366045594687,0.0003253512253590723,-0.0010034956305372438,0.00020451604377272158,-0.0008802208664632165,-0.0005713579949491393
81.4,0.001876682564907361,0.00031704426521664964,-0.0009752703414696565,0.00021094815853427355,-0.0008660705548796957,-0.0005542418549045418
81.5,0.0018525442798706041,0.0003088053415072659,-0.0009480574836152702,0.00021678140542625158,-0.000852388026685985,-0.0005377249731271195
81.60000000000001,0.0018282556582240883,0.0003006475167462748,-0.0009218246368662204,0.0002220437518804365,-0.0008391634929870032,-0.0005217901267863218
81.7,0.0018038495119482552,0.00029258291138240975,-0.0008965395969169082,0.00022676254219857907,-0.0008263865039173716,-0.0005064200534595008
81.80000000000001,0.0017793575181747853,0.0002846227221883968,-0.0008721704367472389,0.00023096447520051268,-0.0008140460275470977,-0.0004915974951058467
81.9,0.0017548101869611058,0.00027677724242911744,-0.0008486855635200955,0.00023467558477813444,-0.0008021305250374143,-0.00047730523921078846
82.0,0.0017302368346258435,0.0002690558836269435,-0.0008260537710491307,0.00023792122321806145,-0.0007906280220501935,-0.0004635261571501537
82.10000000000001,0.0017056655624126977,0.00026146719877145425,-0.0008042442879480578,0.0002407260471839518,-0.0007795261765111436,-0.00045024323987845593
82.2,0.0016811232402212113,0.00025401890680967916,-0.000783226821609207,0.00024311400623063052,-0.000768812342771566,-0.0004374396310116302
82.30000000000001,0.001656635495145606,0.000246717918260787,-0.0007629715981622888,0.00024510833372209354,-0.0007584736322213063,-0.00042509865737773835
82.4,0.0016322267045621552,0.00023957036180455744,-0.0007434493985643303,0.0002467315400284884,-0.0007484969704111827,-0.00041320385711110356
82.5,0.0016079199935068388,0.0002325816116986718,-0.0007246315909743372,0.00024800540787705237,-0.0007388691507499186,-0.00040173900536749884
82.60000000000001,0.0015837372360895283,0.00022575631588800038,-0.0007064901595645776,0.0002489509897358889,-0.000729576884846788,-0.00039068813774059826
82.7,0.0015596990606778919,0.00021909842466575878,-0.0006889977299344519,0.00024958860710294574,-0.0007206068496072257,-0.0003800355714794089
82.80000000000001,0.0015358248585333996,0.0002126112197221765,-0.0006721275913403139,0.0002499378515472117,-0.0007119457313295866,-0.0003697659246865322
82.9,0.0015121327956841633,0.00020629734348037233,-0.0006558537158709239,0.00025001758740078253,-0.000703580266863942,-0.0003598641335654622
83.0,0.0014886398280316375,0.00020015882874304224,-0.0006401507745180919,0.00024984595610696433,-0.0006954972816328673,-0.00035031546763052444
83.10000000000001,0.0014653617194764874,0.0001941971285513421,-0.0006249941502751994,0.00024944038212307794,-0.0006876837245919611,-0.0003411055429572563
83.2,0.001442313062697295,0.000188413146073619,-0.0006103599485194986,0.00024881758020646645,-0.0006801267003610249,-0.00033222033363851334
83.30000000000001,0.0014195073023483343,0.00018280726442332026,-0.0005962250048325905,0.0002479935639744955,-0.0006728134986299038,-0.0003236461815349973
83.4,0.0013969567603105324,0.00017737937623221752,-0.0005825668905272025,0.0002469836555641955,-0.0006657316210680603,-0.00031536980448056335
83.5,0.0013746726627161911,0.000172128912860484,-0.000569363916080189,0.0002458024962603769,-0.0006588688059044285,-0.0003073783030631578
83.60000000000001,0.0013526651687870335,0.0001670548733099591,-0.0005565951324085553,0.0002444640581163043,-0.0006522130500459765,-0.00029965916592651745
83.7,0.0013309434012601109,0.00016215585275251816,-0.0005442403301376233,0.00024298165646708753,-0.0006457526288841662,-0.00029220027370189606
83.80000000000001,0.0013095154783229123,0.00015743007067113552,-0.0005322800369036533,0.0002413679632999515,-0.0006394761137728682,-0.00028498990158109286
83.9,0.001288388546810156,0.00015287539851437343,-0.0005206955128708061,0.00023963502136574932,-0.0006333723873396884,-0.000278016720645472
84.0,0.0012675688162884385,0.00014848938669490035,-0.0005094687447538948,0.00023779425885299096,-0.0006274306569020327,-0.0002712697981281316
84.10000000000001,0.0012470615939580488,0.0001442692909410193,-0.0004985824383865012,0.00023585650459512065,-0.000621640466001055,-0.00026473859663235765
84.2,0.0012268713202473079,0.00014021209797781937,-0.0004880200099088249,0.00023383200376266879,-0.0006159917041201035,-0.00025841297236041557
84.30000000000001,0.0012070016049762372,0.00013631455051506177,-0.0004777655756673603,0.00023173043398125814,-0.0006104746146549792,-0.0002522831724063778
84.4,0.001187455263887246,0.00013257317147357336,-0.0004678039409183063,0.00022956092181866065,-0.0006050798012817591,-0.0002463398312113106
