Timestamps,Region_1,Region_2,Region_3,Region_4
0.0,0.0,0.0,0.0,0.0
0.1,0.0,0.0,0.0,0.0
0.2,0.0,0.0,0.0,0.0
0.30000000000000004,0.0,0.0,0.0,0.0
0.4,1.0153711961343589e-06,5.789306508085395e-07,7.65233502015464e-07,4.472450304839935e-07
0.5,4.83328384627133e-06,2.735222157331026e-06,3.666525068096271e-06,2.1362560872629506e-06
0.6000000000000001,1.380454423652259e-05,7.753578535045349e-06,1.0541321061820128e-05,6.1224296593570635e-06
0.7000000000000001,3.066676556151381e-05,1.7094585358125516e-05,2.35732141777291e-05,1.3647710633342764e-05
0.8,5.8395208878343806e-05,3.230418324728489e-05,4.51879876564692e-05,2.6077003726272184e-05
0.9,0.0001000779804679528,5.49403714416365e-05,7.796438726640681e-05,4.484412553632361e-05
1.0,0.00015881259545919468,8.651479655875778e-05,0.00012455800072232705,7.140622265408366e-05
1.1,0.0002376212313089399,0.00012844714795028908,0.00018763679101905064,0.00010720569628023026
1.2000000000000002,0.0003393822402326999,0.0001820304944133757,0.0002698269570934174,0.0001536387613104326
1.3,0.0004667757717032657,0.000248405921614345,0.0003736679414610214,0.0002120298637741949
1.4000000000000001,0.0006222415817504865,0.0003285450137372019,0.0005015755174007038,0.00028361125468578404
1.5,0.0008079473285350708,0.00042323889955534524,0.000655811998872571,0.0003695070897212414
1.6,0.0010257658551076864,0.0005330927426535864,0.0008384627149154517,0.0004707214873964938
1.7000000000000002,0.0012772601435885596,0.0006585247005525077,0.0010514179792635461,0.0005881300354175752
1.8,0.001563674792343812,0.0007997685097306879,0.0012963598671655006,0.0007224742869285246
1.9000000000000001,0.0018859330159226324,0.0009568789714989058,0.0015747531835323824,0.0008743588348823486
2.0,0.0022446382994071225,0.0011297397192338045,0.0018878400715303942,0.0010442505949740913
2.1,0.0026400799581388704,0.0013180727428747725,0.002236637770861649,0.0012324799669038752
2.2,0.0030722419547286675,0.0015214492285771052,0.0026219390870061924,0.0014392435783181184
2.3000000000000003,0.0035408144141823032,0.001739301343767965,0.0030443151801808383,0.0016646083477004669
2.4000000000000004,0.004045207354162804,0.001970934660215764,0.003504120325154651,0.0019085166314075635
2.5,0.004584566212760639,0.002215540961287046,0.004001498331213849,0.002170792246445837
2.6,0.005157788811305353,0.002472211224815166,0.004536390345604677,0.0024511471844956977
2.7,0.005763543436262225,0.00273994861096983,0.005108543794276628,0.002749188854404689
2.8000000000000003,0.006400287763499605,0.0030176813161538504,0.0057175222411852255,0.0030644277101357195
2.9000000000000004,0.007066288379976541,0.003304275179335453,0.0063627159713695,0.00339628513869023
3.0,0.007759640686508039,0.0035985459490338943,0.007043353125643446,0.003744101499048332
3.1,0.00847828898800357,0.0038992711360523254,0.007758511234229808,0.004107144217600515
3.2,0.009220046596494079,0.004205201390413034,0.0085071290139352,0.004484615858411633
3.3000000000000003,0.00998261579066583,0.004515071352892764,0.009288018310163045,0.004875662098897563
3.4000000000000004,0.010763607488766891,0.004827609939561086,0.010099876078352527,0.005279379551459405
3.5,0.011560560506874278,0.005141550026150323,0.010941296313245407,0.005694823381593959
3.6,0.012370960285572306,0.005455637504616297,0.011810781845231417,0.00612101468096157
3.7,0.013192256980740086,0.005768639690302391,0.012706755934023062,0.0065569475616673156
3.8000000000000003,0.014021882825133216,0.006079353062939508,0.013627573599209087,0.007001595944534808
3.9000000000000004,0.014857268678226536,0.006386610329260053,0.014571532635658647,0.007453920019925287
4.0,0.015695859693244035,0.006689286799860535,0.015536884269820386,0.007912872364999698
4.1000000000000005,0.016535130040290474,0.006986306076942195,0.016521843419529485,0.008377403705593438
4.2,0.0173725966360393,0.0072766450544810984,0.017524598526765627,0.008846468315116275
4.3,0.018205831840238766,0.007559338236356334,0.0185433209381365,0.009319029046105785
4.4,0.01903247509024339,0.007833481382675003,0.019576173813390756,0.009794061993257497
4.5,0.019850243454506707,0.008098234498611264,0.020621320546764424,0.010270560789236865
4.6000000000000005,0.02065694109566695,0.00835282418420878,0.021676932690193718,0.010747540536807808
4.7,0.021450467643845488,0.008596545367949234,0.022741197371645507,0.01122404138295696
4.800000000000001,0.022228825488736,0.00882876245010725,0.023812324204824403,0.011699131742073739
4.9,0.02299012600786327,0.009048909885645884,0.024888551689974,0.012171911176843027
5.0,0.023732594755681638,0.009256492239265413,0.025968153108166393,0.012641512946615186
5.1000000000000005,0.024454575644906905,0.009451083747742402,0.02704944191394165,0.013107106233983602
5.2,0.02515453415794605,0.009632327427047364,0.028130776633638353,0.013567898061258294
5.300000000000001,0.025831059629897794,0.009799933762392845,0.029210565277564823,0.014023134908512092
5.4,0.02648160146284894,0.009952951846041927,0.030286258828987368,0.014471521613186869
5.5,0.027102801881497517,0.010089980959739798,0.03135458449223997,0.014911362422063423
5.6000000000000005,0.02769077612679846,0.010209344753205596,0.03241174618226153,0.015340681012708331
5.7,0.02824134644039024,0.010309233052092557,0.033453595986177684,0.015757321997202537
5.800000000000001,0.028750235495866173,0.010387815751459398,0.03447577992046174,0.016159036152710866
5.9,0.029213224303385407,0.010443332716707204,0.035473860946697626,0.016543551378021604
6.0,0.029626279060029275,0.010474163136463106,0.036443421892478366,0.016908631154517854
6.1000000000000005,0.029985650929233016,0.010478877348775614,0.03738015064200739,0.017252122090803994
6.2,0.03028795231095799,0.010456273795595184,0.03827990971477087,0.01757199195441344
6.300000000000001,0.03053021279039621,0.010405403438627378,0.039138792129349426,0.017866359436004668
6.4,0.030709917619103258,0.010325583686181028,0.03995316524987698,0.01813351674961817
6.5,0.03082503128958398,0.010216403634308525,0.04071970413710407,0.018371946048194678
6.6000000000000005,0.03087400850083888,0.01007772220754472,0.04143541576868979,0.018580330523049124
6.7,0.030855794571331897,0.009909660589134974,0.04209765535093429,0.018757560957131172
6.800000000000001,0.030769817135044418,0.009712590155040281,0.04270413581581483,0.018902738413844454
6.9,0.030615970754449294,0.009487116968251386,0.04325293148227981,0.019015173665228726
7.0,0.030394595896903746,0.009234063746443708,0.043742476756409854,0.019094383893424965
7.1000000000000005,0.0301064535498846,0.008954450087061357,0.044171560652034605,0.01914008713768793
7.2,0.02975269658779907,0.008649471614325345,0.04453931782637625,0.0191521949024068
7.300000000000001,0.029334838858653785,0.008320478607802169,0.0448452167498509,0.019130803292688504
7.4,0.02885472282168612,0.007968954575170589,0.045089045558025884,0.019076182998587838
7.5,0.02831448644543404,0.007596495147292963,0.04527089607154463,0.018988768409607792
7.6000000000000005,0.02771652996179504,0.007204787596682074,0.045391146411345486,0.018869146104425034
7.7,0.027063482971428406,0.006795591214265783,0.04545044258512517,0.01871804292882497
7.800000000000001,0.02635817230418646,0.006370718720612946,0.04544967937328395,0.018536313845439033
7.9,0.025603590957820502,0.005932018837828483,0.04538998080007489,0.018324929712904447
8.0,0.024802868367046076,0.005481360105701861,0.04527268043709776,0.018084965128708524
8.1,0.023959242192212484,0.005020615989556689,0.045099301751042764,0.017817586448844885
8.200000000000001,0.02307603176337962,0.004551651297960586,0.04487153867644718,0.017524040078901695
8.3,0.02215661326861658,0.004076309903995009,0.04459123656546433,0.017205641114273577
8.4,0.021204396737262498,0.003596403745366762,0.04426037364195757,0.01686376239282045
8.5,0.02022280483439007,0.0031137030628579573,0.04388104306344973,0.016499824009578883
8.6,0.019215253456995804,0.0026299278263656814,0.04345543567505331,0.01611528333210985
8.700000000000001,0.018185134099420998,0.0021467402892522205,0.042985823520847656,0.015711625544558353
8.8,0.017135797938851616,0.0016657386069604178,0.04247454416276671,0.015290354739985369
8.9,0.016070541577341165,0.0011884514522596935,0.04192398584251212,0.014852985572561365
9.0,0.0149925943672734,0.0007163335585533877,0.04133657351013239,0.014401035474856919
9.1,0.013905107239273866,0.0002507621223712418,0.040714755731826785,0.013936017439590859
9.200000000000001,0.012811142947175112,-0.00020696600242797744,0.040060992480562954,0.013459433360580317
9.3,0.011713667641542478,-0.0006556363844588129,0.03937774380497291,0.012972767923509319
9.4,0.010615543682446486,-0.001094118431645968,0.03866745936543614,0.01247748303392035
9.5,0.009519523602193254,-0.0015213662053711228,0.037932568820434664,0.011975012767026815
9.600000000000001,0.008428245130309327,-0.001936418688943816,0.037175473041699686,0.011466758821854963
9.700000000000001,0.007344227195212341,-0.0023383995642287728,0.036398536132763816,0.010954086460486914
9.8,0.006269866820087854,-0.002726516546891077,0.03560407822258082,0.010438320911966885
9.9,0.005207436833860494,-0.0031000603275338464,0.03479436900345966,0.0099207442194968
10.0,0.004159084321931379,-0.003458403162882191,0.033971621980784274,0.00940259250894756
10.100000000000001,0.0031268297455479665,-0.0038009971580816337,0.033137989400845655,0.00888505365644253
10.200000000000001,0.0021125666627308626,-0.004127372278415987,0.032295557822244324,0.008369265332617897
10.3,0.0011180619881682684,-0.004437134125936626,0.03144634429607642,0.007856313401341386
10.4,0.00014495673358678928,-0.004729961514080945,0.030592293119949918,0.007347230650849881
10.5,-0.0008052328254103946,-0.005005603870847503,0.02973527313127359,0.006842995835742953
10.600000000000001,-0.0017311136060545382,-0.005263878498976322,0.028877075505627906,0.006344533008688465
10.700000000000001,-0.002631413844425369,-0.005504667719370441,0.02801941202683539,0.005852711121345621
10.8,-0.003504980932699342,-0.005727915922084835,0.027163913796121184,0.005368343874607122
10.9,-0.00435077900565285,-0.005933626547259788,0.026312130348808183,0.004892189798996959
11.0,-0.005167886310872866,-0.0061218590166223896,0.025465529148030637,0.004424952546761991
11.100000000000001,-0.00595549239364232,-0.00629272563444719,0.024625495426127006,0.003967281377956821
11.200000000000001,-0.006712895124223565,-0.006446388475234103,0.023793332345567002,0.0035197718235742722
11.3,-0.007439497592134965,-0.0065830562737416625,0.022970261452551884,0.003082966509565039
11.4,-0.008134804889117364,-0.006702981331466214,0.022157423397709316,0.0026573561263664586
11.5,-0.008798420800032559,-0.0068064564522992465,0.02135587889943786,0.0022433805292370206
11.600000000000001,-0.009430044418400741,-0.006893811918614724,0.020566609926776398,0.0018414299554753311
11.700000000000001,-0.010029466700996931,-0.006965412517633324,0.019790521079958982,0.0014518463453572048
11.8,-0.010596566973938723,-0.007021654626612399,0.019028441148023996,0.0010749247543296336
11.9,-0.011131309401128636,-0.007062963364290222,0.01828112482388658,0.0007109148446020175
12.0,-0.011633739424010896,-0.007089789814639567,0.017549254558663543,0.00036002244508320195
12.100000000000001,-0.012103980180527643,-0.007102608328049551,0.01683344253796353,2.24111691451337e-05
12.200000000000001,-0.012542228910013886,-0.007101913904032006,0.016134232763926646,-0.0003017959196807669
12.3,-0.012948753349669039,-0.007088219658523584,0.01545210322793156,-0.0006125146033021214
12.4,-0.013323888127743187,-0.007062054378159924,0.014787468159697368,-0.0009096977747126255
12.5,-0.013668031157811433,-0.007023960163036382,0.014140680339574937,-0.0011933336818056382
12.600000000000001,-0.013981640038166793,-0.0069744901588560315,0.01351203346166902,-0.0014634441569660874
12.700000000000001,-0.01426522846018618,-0.006914206378854357,0.012901764536225987,-0.001720082839572292
12.8,-0.014519362629237175,-0.0068436776153320625,0.012310056320635691,-0.001963333397981302
12.9,-0.014744657701865577,-0.00676347744035888,0.011737039769037791,-0.0021933077571727236
13.0,-0.014941774243049601,-0.006674182294897047,0.011182796491275048,-0.002410144337754792
13.100000000000001,-0.015111414707300283,-0.0065763696652847165,0.01064736121273714,-0.0026140063115318492
13.200000000000001,-0.015254319947810431,-0.006470616345996742,0.010130724227158223,-0.0028050798784930208
13.3,-0.01537126575807889,-0.006357496787499846,0.009632833835069509,-0.0029835725696671167
13.4,-0.01546305945061515,-0.0062375815279344295,0.009153598761271274,-0.003149711579854984
13.5,-0.01553053647773862,-0.0061114357074440705,0.008692890545159307,-0.0033037421339309724
13.600000000000001,-0.015574557099744406,-0.0059796176640136735,0.008250545898285434,-0.003445925890037518
13.700000000000001,-0.015596003105885572,-0.0058426776097100465,0.00782636902408312,-0.0035765393826240367
13.8,-0.015595774593929777,-0.0057011563863626396,0.007420133895104398,-0.0036958725079892347
13.9,-0.01557478681420696,-0.005555584299811139,0.007031586483575095,-0.0038042270546653875
14.0,-0.015533967084118654,-0.005406480031906972,0.006660446941545171,-0.0039019152806576054
14.100000000000001,-0.015474251779207,-0.00525434962958385,0.006306411727271008,-0.003989258539291389
14.200000000000001,-0.01539658340687332,-0.005099685570385848,0.005969155674848137,-0.00406658595515061
14.3,-0.015301907768677882,-0.004942965903847767,0.005648334004540868,-0.004134233151289516
14.4,-0.015191171217138108,-0.004784653468228636,0.005343584271499814,-0.004192541028716603
14.5,-0.015065318012631859,-0.004625195182046651,0.005054528250963889,-0.004241854598866955
14.600000000000001,-0.014925287785745379,-0.004465021409848521,0.00478077375833896,-0.00428252186956749
14.700000000000001,-0.014772013110103926,-0.004304545401617841,0.004521916402815773,-0.0043148927848045224
14.8,-0.014606417190309523,-0.004144162805139081,0.004277541273476789,-0.004339318218401622
14.9,-0.014429411669146228,-0.003984251250522056,0.00404722455711307,-0.004356149021525762
15.0,-0.014241894557703881,-0.0038251700059539723,0.003830535087221801,-0.0043657351237669706
15.100000000000001,-0.014044748291559106,-0.003667259703609434,0.0036270358238895063,-0.004368424687375709
15.200000000000001,-0.013838837915580604,-0.003510842134475176,0.0034362852644881942,-0.004364563314092129
15.3,-0.01362500939936589,-0.0033562201106794765,0.00325783878528957,-0.004354493303880914
15.4,-0.013404088084736558,-0.0032036773937343904,0.0030912499142733683,-0.004338552964772091
15.5,-0.013176877266042528,-0.003053478686860166,0.0029360715356605152,-0.004317075972848341
15.600000000000001,-0.01294415690344755,-0.002905869689377573,0.0027918570268382534,-0.004290390781333479
15.700000000000001,-0.012706682468792125,-0.0027610772109666363,0.0026581613284689873,-0.004258820077660856
15.8,-0.012465183923039155,-0.0026193093433938357,0.0025345419487252654,-0.004222680287311665
15.9,-0.012220364823712573,-0.002480755687106904,0.002420559902762904,-0.004182281123115931
16.0,-0.011972901559879937,-0.0023455876297447803,0.0023157805882982043,-0.004137925178861746
16.1,-0.011723442713333755,-0.0022139586743664436,0.002219774599927299,-0.004089907565011321
16.2,-0.011472608541111545,-0.0020860048133269286,0.0021321184817723123,-0.004038515586159334
16.3,-0.011220990576730329,-0.0019618449451481697,0.0020523954209409395,-0.003984028458141679
16.400000000000002,-0.010969151346130357,-0.0018415813310599333,0.0019801958833292423,-0.003926717063295204
16.5,-0.010717624194024644,-0.0017253000878433233,0.0019151181933896814,-0.0038668437423304003
16.6,-0.010466913215954447,-0.001613071713507105,0.0018567690595321276,-0.003804662121270105
16.7,-0.010217493291084064,-0.0015049516422991805,0.001804764046887961,-0.0037404169718888353
16.8,-0.00996981021058264,-0.0014009808255705462,0.0017587279992376434,-0.003674344104066611
16.900000000000002,-0.009724280896485252,-0.0013011863351513686,0.0017182954121128659,-0.003606670288367433
17.0,-0.009481293705400469,-0.0012055819857142293,0.0016831107588367816,-0.0035376132073234785
17.1,-0.009241208811383994,-0.0011141689726886289,0.0016528287713338437,-0.0034673814338875204
17.2,-0.009004358662333753,-0.001026936522423129,0.0016271146776320796,-0.003396174435485077
17.3,-0.008771048504477335,-0.0009438625515210119,0.001605644398178146,-0.0033241826020049977
17.400000000000002,-0.008541556969068359,-0.0008649143321176402,0.0015881047027411456,-0.0032515872962965084
17.5,-0.00831613671555857,-0.0007900491600583412,0.0015741933297635793,-0.0031785609257149808
17.6,-0.00809501512591106,-0.0007192150232583379,0.001563619070247411,-0.003105267033146338
17.7,-0.007878395043946582,-0.0006523512671779378,0.001556101817638239,-0.003031860406334681
17.8,-0.0076664555553363645,-0.0005893892554178784,0.0015513725862803431,-0.002958487203701965
17.900000000000002,-0.007459352802281647,-0.0005302530226148096,0.0015491734997875816,-0.0028852850956031678
18.0,-0.007257220827893732,-0.0004748599174594079,0.0015492577512161729,-0.002812383419659157
18.1,-0.007060172445584334,-0.00042312123389679336,0.001551389536976453,-0.0027399033488019727
18.2,-0.006868300128630893,-0.0003749428285492896,0.0015553439661586171,-0.002667958070844996
18.3,-0.006681676915423236,-0.0003302257226577086,0.0015609069470031293,-0.0025966529783779807
18.400000000000002,-0.006500357326123629,-0.0002888666870191157,0.0015678750522139739,-0.0025260858678263
18.5,-0.0063243782866930455,-0.00025075880857134314,0.0015760553647688907,-0.0024563471465600083
18.6,-0.006153760056460787,-0.00021579203744286917,0.0015852653058352941,-0.0023875200469835444
18.7,-0.005988507155614262,-0.00018385371343507823,0.0015953324463296237,-0.0023196808465974425
18.8,-0.005828609289075734,-0.00015482907098404207,0.0016060943035033804,-0.002252899093131586
18.900000000000002,-0.005674042263745192,-0.000128601721965587,0.0016173981240963076,-0.002187237833772213
19.0,-0.0055247688962351965,-0.00010505411580468167,0.0016291006554822675,-0.0021227538475893457
19.1,-0.005380739908426796,-8.406797647631277e-05,0.001641067906161526,-0.0020594978803286203
19.200000000000003,-0.005241894808401469,-6.552471611808953e-05,0.0016531748969011784,-0.001997514880776283
19.3,-0.005108162754524253,-4.930582509995043e-05,0.0016653054037706818,-0.0019368442379515984
19.400000000000002,-0.004979463400657615,-3.5293238507128505e-05,0.00167735169425686,-0.0018775200184303733
19.5,-0.004855707720552014,-2.3369679020780876e-05,0.0016892142574764046,-0.0018195712032126814
19.6,-0.004736798809884032,-1.3418976409994628e-05,0.0017008015296249037,-0.0017630219234865045
19.700000000000003,-0.004622632664577791,-5.326363922708805e-06,0.001712029615725265,-0.001707891694694199
19.8,-0.004513098934192586,1.0212480765451836e-06,0.001722822008651624,-0.0016541956483699266
19.900000000000002,-0.00440808164933827,5.735020798941995e-06,0.001733109306356133,-0.0016019447612527393
20.0,-0.004307459922250687,8.923957562194582e-06,0.0017428289281706546,-0.0015511460812209902
20.1,-0.004211108619818173,1.0694695610266528e-05,0.0017519248310059988,-0.001501802949629739
20.200000000000003,-0.004118899008459224,1.1151318644434232e-05,0.0017603472261942437,-0.0014539152196847533
20.3,-0.004030699370448136,1.0395189411852528e-05,0.001768052297701972,-0.0014074794705027296
20.400000000000002,-0.003946375591431152,8.524801653035781e-06,0.00177500192239934,-0.0013624892165378611
20.5,-0.0038657917189813392,5.635650689828134e-06,0.0017811633930099522,-0.0013189351120950629
20.6,-0.0037888104921573445,1.8201219091801793e-06,0.0017865091443238499,-0.0012768051506789717
20.700000000000003,-0.003715293842139728,-2.832603622324267e-06,0.00179101648320721,-0.0012360848589603847
20.8,-0.0036451033641930453,-8.236627235128268e-06,0.0017946673229424352,-0.0011967574851446474
20.900000000000002,-0.0035781007609068734,-1.4309395035672706e-05,0.0017974479221766048,-0.0011588041816794977
21.0,-0.0035141482574065365,-2.0971745582102215e-05,0.0017993486290727911,-0.001122204182054736
21.1,-0.003453108988824946,-2.814794357459555e-05,0.0018003636309598214,-0.0010869349716247276
21.200000000000003,-0.0033948473605340786,-3.576570035792835e-05,0.0018004907098133692,-0.0010529724523636397
21.3,-0.0033392293816958195,-4.375618202720898e-05,0.0017997310038623514,-0.0010202911014867719
21.400000000000002,-0.0032861229727459865,-5.20540059181955e-05,0.0017980887755815547,-0.0009888641238914371
21.5,-0.0032353982474748024,-6.05972262527159e-05,0.0017955711862946751,-0.0009586635983924028
21.6,-0.0031869277703816716,-6.932730967916955e-05,0.001792188077558095,-0.0009296606177583074
21.700000000000003,-0.0031405867900259547,-7.818910143720527e-05,0.0017879517594666088,-0.0009018254225721411
21.8,-0.003096253449184515,-8.713078289009493e-05,0.0017828768060487808,-0.0008751275289219435
21.900000000000002,-0.0030538089726162973,-9.610382112742872e-05,0.0017769798578552059,-0.0008495358499653078
22.0,-0.0030131378332550257,-0.00010506291131965364,0.0017702794318174698,-0.0008250188114247653
22.1,-0.0029741278976678012,-0.00011396591248323316,0.0017627957384297975,-0.0008015444610850128
22.200000000000003,-0.002936670551631862,-0.00012277377729393713,0.0017545505062815678,-0.0007790805723748973
22.3,-0.002900660806689413,-0.00013145047656095725,0.0017455668139482196,-0.0007575947421276426
22.400000000000002,-0.0028659973885471666,-0.0001399629189516684,0.0017358689292248407,-0.0007370544826241979
22.5,-0.00283258280818914,-0.0001482808665317735,0.0017254821556688918,-0.0007174273080330512
22.6,-0.002800323416570466,-0.00015637684666176664,0.001714432686400787,-0.0006986808153677872
22.700000000000003,-0.002769129443756561,-0.0001642260607655197,0.0017027474650926637,-0.0006807827600921012
22.8,-0.002738915023365832,-0.0001718062904624697,0.0016904540540612608,-0.0006637011265080912
22.900000000000002,-0.002709598203164958,-0.00017909780153018442,0.001677580509366347,-0.0006474041930692704
23.0,-0.0026811009426752205,-0.00018608324615099306,0.001664155262779759,-0.000631860592778584
23.1,-0.002653349098655187,-0.0001927475638832646,0.0016502070104508291,-0.0006170393688518975
23.200000000000003,-0.0026262723992710848,-0.0001990778817509969,0.0016357646081357111,-0.0006029100257995353
23.3,-0.0025998044077539337,-0.0002050634138242366,0.0016208569728381815,-0.0005894425760874935
23.400000000000002,-0.0025738824761696354,-0.00021069536055195957,0.0016055129908761109,-0.0005766075824394076
23.5,-0.002548447690035796,-0.00021596680816122164,0.0015897614322401333,-0.0005643761959252741
23.6,-0.002523444804505896,-0.0002208726284193735,0.0015736308710948917,-0.0005527201899902339
23.700000000000003,-0.0024988221729051385,-0.0002254093790827641,0.001557149612196829,-0.0005416119906183914
23.8,-0.002474531668510461,-0.00022957520540771626,0.001540345622876182,-0.0005310247028978219
23.900000000000002,-0.002450528600187239,-0.00023336974292832298,0.0015232464704646692,-0.0005209321341110387
24.0,-0.0024267716225688657,-0.00023679402174327843,0.0015058792649570638,-0.0005113088135279252
24.1,-0.0024032226413186614,-0.00023985037246419436,0.0014882706067957624,-0.0005021300090158706
24.200000000000003,-0.0023798467140954908,-0.00024254233402184254,0.001470446539575806,-0.0004933717406335732
24.3,-0.0023566119478294,-0.0002448745635143683,0.0014524325074584663,-0.00048501079137784327
24.400000000000002,-0.0023334893928363206,-0.00024685274823378335,0.001434253317119266,-0.0004770247152273505
24.5,-0.0023104529342391844,-0.0002484835199708924,0.0014159331040771454,-0.00046939184261314245
24.6,-0.0022874791812037645,-0.0002497743717214261,0.0013974953032127233,-0.00046209128346601794
24.700000000000003,-0.0022645473544649496,-0.00025073357689671264,0.0013789626232894906,-0.00045510292798474794
24.8,-0.0022416391726572476,-0.00025137011116417774,0.001360357025254677,-0.00044840744528909943
24.900000000000002,-0.002218738737960337,-0.00025169357703971456,0.0013416997040777705,-0.00044198628012921356
25.0,-0.002195832421420893,-0.00025171413126843064,0.0013230110739749271,-0.0004358216477678823
25.1,-0.0021729087483265313,-0.0002514424150410094,0.0013043107568395634,-0.000429896527166337
25.200000000000003,-0.0021499582839434746,-0.0002508894870580204,0.0012856175737323676,-0.00042419465258300323
25.3,-0.002126973519999031,-0.0002500667594976159,0.0012669495392261423,-0.00041870050372647534
25.400000000000002,-0.002103948762216477,-0.00024898593690125473,0.001248323858435076,-0.0004133992945822091
25.5,-0.0020808800191496222,-0.00024765895796143294,0.0012297569265895731,-0.00040827696101150806
25.6,-0.0020577648926032245,-0.0002460979402209463,0.0012112643309801611,-0.00040332014724217335
25.700000000000003,-0.002034602469891588,-0.0002443151276774245,0.0011928608551085562,-0.00039851619135974637
25.8,-0.0020113932181861816,-0.00024232284128970378,0.0011745604848715037,-0.0003938531099138284
25.900000000000002,-0.001988138881155219,-0.00024013343235806503,0.001156376416630172,-0.0003893195817362619
26.0,-0.001964842378081173,-0.00023775923874583236,0.001138321067018866,-0.0003849049310658554
26.1,-0.001941507705617809,-0.00023521254389946935,0.0011204060843526377,-0.00038059911006965946
26.200000000000003,-0.0019181398423367935,-0.0002325055386226876,0.001102642361496221,-0.00037639268084754726
26.3,-0.0018947446561637235,-0.0002296502855359651,0.0010850400500356453,-0.0003722767970178648
26.400000000000002,-0.001871328814949441,-0.00022665868624110596,0.0010676085757295622,-0.00036824318490120663
26.5,-0.0018478997000759196,-0.000223542451015356,0.0010503566549714982,-0.00036428412446284756
26.6,-0.0018244653232944138,-0.00022031307103831879,0.0010332923122305078,-0.0003603924300336658
26.700000000000003,-0.001801034246863604,-0.0002169817930833526,0.0010164228983511278,-0.00035656143087992335
26.8,-0.001777615507030831,-0.00021355959659583916,0.000999755109598853,-0.00035278495168789524
26.900000000000002,-0.0017542185408738955,-0.00021005717307110206,0.0009832950073370593,-0.0003490572930287043
27.0,-0.001730853116519633,-0.00020648490764988743,0.0009670480382322309,-0.0003453732118613946
27.1,-0.0017075292667650445,-0.0002028528628588844,0.000951019054900431,-0.0003417279021218928
27.200000000000003,-0.001684257226166043,-0.0001991707644515317,0.000935212336944914,-0.0003381169754232481
27.3,-0.0016610473715217807,-0.00019544798922915368,0.0009196316122635097,-0.0003345364419339198
27.400000000000002,-0.001637910165720122,-0.00019169355475020155,0.0009042800785379451,-0.00033098269148045407
27.5,-0.0016148561049103398,-0.00018791611084071353,0.0008891604248281003,-0.0003274524749136068
27.6,-0.0015918956690367037,-0.00018412393286173595,0.0008742748532484917,-0.00032394288574483427
27.700000000000003,-0.0015690392756659824,-0.00018032491663577574,0.0008596251006484313,-0.0003204513420927803
27.8,-0.0015462972370138858,-0.00017652657492277796,0.0008452124602080337,-0.00031697556898414045
27.900000000000002,-0.0015236797201022608,-0.000172736035356829,0.0008310378028901068,-0.0003135135810363796
28.0,-0.0015011967100787438,-0.00016896003981573056,0.0008171015987566896,-0.00031006366550937094
28.1,-0.001478857976398684,-0.0001652049450088579,0.0008034039379581761,-0.0003066243658305789
28.200000000000003,-0.0014566730421127743,-0.00016147672438681222,0.0007899445515544144,-0.0003031944654914356
28.3,-0.0014346511559625728,-0.00015778097116517773,0.0007767228319906982,-0.0002997729724108912
28.400000000000002,-0.0014128012672083717,-0.00015412290238972718,0.0007637378531974836,-0.0002963591037755726
28.5,-0.0013911320031655052,-0.0001505073640030661,0.000750988390322579,-0.00029295227134226726
28.6,-0.0013696516493309507,-0.00014693883682093416,0.000738472939049244,-0.00028955206722147155
28.700000000000003,-0.0013483681319923226,-0.00014342144333607978,0.0007261897344655984,-0.00028615825015309784
28.8,-0.0013272890032256688,-0.00013995895527948069,0.0007141367694642342,-0.00028277073227782795
28.900000000000002,-0.0013064214281869576,-0.00013655480187015932,0.0007023118126529909,-0.00027938956640623957
29.0,-0.001285772174599763,-0.0001332120786868991,0.0006907124257618448,-0.00027601493378538305
29.1,-0.0012653476043413662,-0.00012993355709711306,0.000679335980531173,-0.0002726471323628291
29.200000000000003,-0.001245153667027346,-0.00012672169417995838,0.0006681796750710646,-0.00026928656554507717
29.3,-0.0012251958954889897,-0.00012357864307920922,0.0006572405496780678,-0.00026593373144984946
29.400000000000002,-0.0012054794029881257,-0.00012050626369638592,0.0006465155020667315,-0.00026258921266842587
29.5,-0.0011860088821012587,-0.00011750613368678272,0.0006360013020310074,-0.0002592536665205071
29.6,-0.0011667886051885399,-0.0001145795597134634,0.0006256946055414912,-0.00025592781578949426
29.700000000000003,-0.0011478224263481438,-0.00011172758890727437,0.0006155919682763746,-0.0002526124399313195
29.8,-0.0011291137847599772,-0.0001089510204845576,0.0006056898585868301,-0.00024930836674831705
29.900000000000002,-0.0011106657093218862,-0.00010625041747540134,0.0005959846698980279,-0.0002460164645193546
30.0,-0.0010924808244850254,-0.00010362611851877407,0.0005864727325492699,-0.00024273763457684862
30.1,-0.0010745613571955992,-0.00010107824968277991,0.0005771503250771505,-0.00023947280432059598
30.200000000000003,-0.0010569091448480272,-9.860673626789302e-05,0.0005680136849450357,-0.00023622292065927371
30.3,-0.0010395256440538232,-9.621131449532092e-05,0.0005590590187137207,-0.00023298894387566708
30.400000000000002,-0.0010213964760151593,-9.331322562802571e-05,0.0005510512839520842,-0.00022932186493505627
30.5,-0.0010007346778334342,-8.891427801346665e-05,0.0005453635626139661,-0.0002244234351432644
30.6,-0.0009751886771122834,-8.172982604223412e-05,0.0005438372800877108,-0.000217233193766236
30.700000000000003,-0.0009420190332149523,-7.02990092213198e-05,0.0005486610670659837,-0.0002065033073140664
30.8,-0.0008982475881624493,-5.3075198505434024e-05,0.0005622662663987707,-0.00019086257335925854
30.900000000000002,-0.0008407823175163844,-2.8499265077558674e-05,0.000587237275998543,-0.00016887080031161396
31.0,-0.0007665208516496796,4.942000421543488e-06,0.0006262350930987682,-0.00013906464919783128
31.1,-0.0006724353442080402,4.867024370985936e-05,0.0006819325845322556,-9.99959124235969e-05
31.200000000000003,-0.0005556410917647732,0.00010398083133184328,0.0007569601536520118,-5.026310542813967e-05
31.3,-0.0004134510548014814,0.00017201742470244192,0.0008538606077058779,1.1462841405934977e-05
31.400000000000002,-0.00024341819422938623,0.00025375439415874175,0.0009750521507568981,8.641808260335705e-05
31.5,-4.336731957633882e-05,0.00034998579686347747,0.0011227985373268193,0.0001757299124983416
31.6,0.00018858205479174437,0.00046131980055354855,0.0012991855213135642,0.0002804048024247594
31.700000000000003,0.00045400053352740225,0.0005881775805087253,0.0015061028258762097,0.0004013199058646143
31.8,0.0007541401969410375,0.0007307958475460233,0.0017452309409029141,0.0005392175692382575
31.900000000000002,0.0010899314914465195,0.000889232282747276,0.002018032127939255,0.0006947024333089598
32.0,0.0014619847877111057,0.001063373260651621,0.0023257450788807046,0.0008682407533373523
32.1,0.001870595856487657,0.0012529433361333573,0.0026693827337619957,0.0010601616049018513
32.2,0.0023157546146729824,0.0014575160531152928,0.0030497328165514487,0.0012706596778729077
32.300000000000004,0.0027971565825819526,0.0016765257053475205,0.0034673606956009094,0.0014997993931741861
32.4,0.003314216569354326,0.0019092797417151043,0.003922614218090613,0.0017475201061253715
32.5,0.003866084168414764,0.0021549715619289815,0.004415630206158192,0.002013642186731776
32.6,0.004451660700051239,0.0024126934937245344,0.004946342336759656,0.0022978737914310502
32.7,0.005069617284604514,0.0026814497806336704,0.00551449015805113,0.002599818162707653
32.800000000000004,0.005718413768544231,0.0029601694407924593,0.00611962902250815,0.002918981312781399
32.9,0.006396318258444568,0.003247718883199985,0.006761140741720213,0.0032547799655865883
33.0,0.007101427045030502,0.0035429141888254074,0.007438244789792304,0.0036065496474400765
33.1,0.007831684722611133,0.0038445329810829765,0.00815000990216019,0.003973552831481486
33.2,0.008584904328793141,0.004151325823929959,0.008895365934398094,0.004354987054146792
33.300000000000004,0.00935878734629484,0.004462027096933037,0.0096731158615743,0.0047499929337773755
33.4,0.010150943423568818,0.004775365305651805,0.010481947813066704,0.005157662032067453
33.5,0.010958909684413232,0.0050900727931529905,0.011320447050701253,0.005577044508539798
33.6,0.011780169509259758,0.005404894824828423,0.012187107809789786,0.006007156526718122
33.7,0.012612170682535624,0.005718598024192049,0.013080344933143482,0.006446987378159017
33.800000000000004,0.013452342811755674,0.006029978142307497,0.013998505237611742,0.006895506297142902
33.9,0.014298113935212145,0.0063378671482874505,0.014939878561358937,0.007351668944743097
34.0,0.015146926246027266,0.006641139632838194,0.01590270844784517,0.00781442354616052
34.1,0.015996250871026123,0.006938718521227416,0.01688520242942143,0.00828271666970634
34.2,0.01684360165408434,0.0072295800967801475,0.01788554188006357,0.008755498639937272
34.300000000000004,0.01768654790374112,0.007512758340182143,0.018901891412253555,0.009231728580755728
34.4,0.01852272607574736,0.007787348594549791,0.01993240779847451,0.009710379087442855
34.5,0.01934985037108733,0.008052510570395187,0.0209752484023238,0.010190440529097889
34.6,0.020165722240064993,0.008307470708962148,0.02202857910863675,0.0106709249852794
34.7,0.020968238792367908,0.008551523926388357,0.02309058174582001,0.01115086982254962
34.800000000000004,0.02175540012188474,0.008784034764903732,0.02415946099706064,0.011629340918270427
34.9,0.022525315563456903,0.009004437980786121,0.02523345080027779,0.012105435540444081
35.0,0.02327620890618023,0.009212238601749063,0.026310820239399412,0.01257828489352155
35.1,0.024006422594962783,0.009407011489178848,0.027389878932182064,0.013047056341160696
35.2,0.0247144209578127,0.009588400442588744,0.028468981921848036,0.013510955317627762
35.300000000000004,0.025398792501469376,0.00975611688521357,0.029546534081551567,0.013969226940057217
35.4,0.02605698554937788,0.009909210976101823,0.030619981236343467,0.01442057315462515
35.5,0.026685640994070097,0.010046283085448176,0.0316860441145082,0.01486329430875623
35.6,0.027280872531522588,0.010165657917159086,0.032740919406057535,0.015295409592342006
35.7,0.027838500716668838,0.010265526297846172,0.03378045167978404,0.01571475887653995
35.800000000000004,0.028354246484341122,0.010344059076523675,0.03480027949949483,0.016119088207805003
35.9,0.028823889152493263,0.010399497047557075,0.035795958717102574,0.016506120967511414
36.0,0.029243393372066454,0.010430220333758128,0.0367630656015228,0.016873616485160607
36.1,0.029609009002957248,0.010434800246547997,0.03769728218015503,0.01721941769346746
36.2,0.029917347472277447,0.01041203627334416,0.03859446592014842,0.01754148923555308
36.300000000000004,0.03016543779820336,0.01036098052150277,0.03945070565387276,0.01783794727533431
36.4,0.030350765133636944,0.010280951667882485,0.040262365454625436,0.018107082120818175
36.5,0.03047129439020473,0.01017154021655196,0.0410261179910261,0.01834737464425202
36.6,0.030525481240102795,0.010032606649683798,0.04173896873021915,0.01855750737181961
36.7,0.030512272551218,0.009864273860827024,0.04239827221584199,0.018736371015542784
36.800000000000004,0.030431098092855033,0.00966691508585383,0.04300174151908823,0.018883067132284985
36.9,0.030281855147004298,0.009441138388848358,0.04354745184516327,0.018996907516020956
37.0,0.030064887472870713,0.009187768616810095,0.04403383917251311,0.019077410859227692
37.1,0.02978095990045092,0.008907827607608299,0.04445969470812467,0.019124297156901268
37.2,0.029431229668724374,0.008602513317473765,0.04482415585627176,0.01913748027048029
37.300000000000004,0.02901721547701728,0.008273178427906556,0.0451266943207235,0.019117059018873967
37.4,0.028540765083202198,0.00792130889619381,0.045367101890432984,0.019063307118950452
37.5,0.02800402215821185,0.007548502827638017,0.04554547439474777,0.018976662257296172
37.6,0.027409392994186144,0.0071564499715902966,0.045662194256623545,0.01885771453891128
37.7,0.02675951356281818,0.006746912076813966,0.045717912020482886,0.018707194526244652
37.800000000000004,0.0260572173280982,0.006321704282512469,0.04571352718312427,0.018525961052259902
37.9,0.02530550413786334,0.005882677671756044,0.04565016861391196,0.018314988965444985
38.0,0.024507510446258752,0.005431703070715788,0.045529174811140626,0.018075356940870042
38.1,0.02366648105777191,0.0049706561417914245,0.04535207420708103,0.017808235470763455
38.2,0.02278574252830701,0.004501403788375751,0.04512056570196518,0.01751487512891398
38.300000000000004,0.02186867831336183,0.004025791865482015,0.04483649957939353,0.0171965951868663
38.400000000000006,0.02091870571310133,0.003545634170741275,0.04450185892958951,0.016854772644697938
38.5,0.019939254631908432,0.0030627026758687005,0.04411874168459236,0.016490831726312227
38.6,0.01893374814234712,0.0025787189473107965,0.043689343348874476,0.016106233877449087
38.7,0.017905584821636907,0.0020953466969834,0.04321594049097694,0.015702468294566965
38.800000000000004,0.016858122810989126,0.0016141853986111662,0.04270087504568495,0.015281043003838656
38.900000000000006,0.01579466553448749,0.0011367649020563562,0.04214653946219293,0.014843476501819438
39.0,0.014718449004274207,0.0006645409768741887,0.04155536272161802,0.014391289962864626
39.1,0.01363263063113006,0.00019889171618805187,0.040929797236301205,0.013926000012597846
39.2,0.012540279454568353,-0.0002588852669350097,0.0402723066340271,0.013449112061912547
39.300000000000004,0.011444367704135374,-0.0007075749162468396,0.03958535442261844,0.01296211419213268
39.400000000000006,0.010347763602086375,-0.0011460461455731607,0.038871393523370205,0.012466471578484377
39.5,0.009253225318361114,-0.001573252648708984,0.038132856656452704,0.011963621436517033
39.6,0.008163395989631483,-0.001988233163268597,0.037372147556388756,0.011454968473745896
39.7,0.00708079971701816,-0.0023901112421987427,0.03659163299226468,0.010941880827327336
39.800000000000004,0.006007838459476192,-0.0027780945836939235,0.03579363556395011,0.010425686467106421
39.900000000000006,0.004946789743757566,-0.0031514739667352007,0.03498042724355072,0.009907670042658344
40.0,0.003899805115369541,-0.003509621836512966,0.03415422362937212,0.009389070152241448
40.1,0.0028689092592754065,-0.003851990580826201,0.033317178878629554,0.008871077011368547
40.2,0.0018559997230945815,-0.004178110535816272,0.0324713812842396,0.0083548304985318
40.300000000000004,0.0008628471800043202,-0.004487587756605042,0.03161884946076923,0.007841418555782124
40.400000000000006,-0.00010890382720875487,-0.00478010158590711,0.03076152910454923,0.0073318759221007715
40.5,-0.0010577337151978425,-0.005055402051287055,0.029901290293241872,0.006827183177907388
40.6,-0.0019822463122239537,-0.00531330711947453,0.02903992529067752,0.006328266079562167
40.7,-0.002881166979407903,-0.005553699834067793,0.028179146823447958,0.005835995163286258
40.800000000000004,-0.0037533404429898475,-0.005776525360920679,0.027320586796660076,0.005351185598605356
40.900000000000006,-0.004597728375803207,-0.005981787963679517,0.026465795417180988,0.004874597272079869
41.0,-0.00541340676242123,-0.006169547930080136,0.02561624069386002,0.0044069350828546214
41.1,-0.006199563079052091,-0.006339918467948583,0.024773308285322027,0.003948849432281128
41.2,-0.006955493315806374,-0.006493062588098103,0.023938301667256006,0.003500936890699511
41.300000000000004,-0.007680598866069043,-0.006629189989839307,0.02311244259224607,0.003063741025159975
41.400000000000006,-0.008374383304834802,-0.00674855396328721,0.02229687181645522,0.002637753372629308
41.5,-0.009036449075143423,-0.006851448321135083,0.021492650068779297,0.002223414544009318
41.6,-0.009666494099162882,-0.006938204371057949,0.02070075923944537,0.0018211154450976095
41.7,-0.010264308328565636,-0.007009187938730507,0.019922103766051264,0.0014311986012169344
41.800000000000004,-0.010829770246541366,-0.007064796449959458,0.019157512196459277,0.001053959573070779
41.900000000000006,-0.011362843332094433,-0.0071054560792388885,0.018407738909083468,0.0006896484520366449
42.0,-0.011863572495880093,-0.0071316189709612066,0.017673465972139646,0.00033847142370414666
42.1,-0.012332080495225174,-0.007143760538263546,0.016955305124715703,5.923892192363302e-07
42.2,-0.012768564335105781,-0.007142376843628028,0.016253799863401586,-0.0003238653654939645
42.300000000000004,-0.013173291660756837,-0.007127982064327044,0.015569427619352726,-0.0006348174618949433
42.400000000000006,-0.013546597146845887,-0.007101106044967947,0.014902602011632604,-0.0009322166910610433
42.5,-0.013888878887702504,-0.007062291938717094,0.014253675163531937,-0.0012160512541775975
42.6,-0.01420059479250303,-0.007012093938021346,0.01362294006957656,-0.0014863429888590687
42.7,-0.014482258989262909,-0.0069510750952082225,0.013010633001645304,-0.001743145588447159
42.800000000000004,-0.014734438241331518,-0.006879805232858823,0.012416935943448787,-0.001986542820923737
42.900000000000006,-0.014957748379860388,-0.006798858943349076,0.011841979043532408,-0.0022166467535140394
43.0,-0.015152850756056416,-0.00670881367681282,0.01128584307752085,-0.002433595988704874
43.1,-0.015320448717163216,-0.0066102479165479275,0.010748561911037274,-0.002637553916948058
43.2,-0.015461284110205227,-0.0065037394406713255,0.010230124955470885,-0.002828706990846641
43.300000000000004,-0.01557613381794221,-0.006389863668838506,0.009730479609288049,-0.0030072630252766233
43.400000000000006,-0.01566580633175084,-0.0062691920928091335,0.00924953367818029,-0.0031734495275024385
43.5,-0.015731138366344124,-0.0061422907896050505,0.00878715776796801,-0.0033275120609302117
43.6,-0.01577299152163227,-0.0060097190161262585,0.008343187644630854,-0.003469712645831858
43.7,-0.015792248997274248,-0.005872027884161815,0.007917426556346082,-0.003600328200023729
43.800000000000004,-0.015789812365607662,-0.005729759114779131,0.007509647512949013,-0.003719649022120837
43.900000000000006,-0.015766598408909347,-0.005583443871227462,0.007119595518619556,-0.0038279773197094744
44.0,-0.015723536027063886,-0.005433601669591873,0.0067469897540232485,-0.003925625784482646
44.1,-0.015661563221669148,-0.005280739366462926,0.006391525704619746,-0.004012916216047704
44.2,-0.015581624162773583,-0.005125350223060934,0.006052877232107715,-0.004090178195919825
44.300000000000004,-0.01548466634423659,-0.004967913045235049,0.005730698586438295,-0.004157747812895108
44.400000000000006,-0.01537163783357653,-0.004808891398799472,0.005424626356157424,-0.004215966440760367
44.5,-0.015243484622007109,-0.004648732899702974,0.005134281355133245,-0.004265179569081907
44.6,-0.015101148080064254,-0.0044878685784941405,0.004859270444049321,-0.004305735687585138
44.7,-0.014945562523867698,-0.004326712318484391,0.004599188285347223,-0.004337985224422579
44.800000000000004,-0.014777652896641165,-0.004165660366921402,0.0043536190305836575,-0.004362279538429098
44.900000000000006,-0.014598332569687907,-0.004005090918394667,0.004122137939431911,-0.0043789699652779105
45.0,-0.014408501266509994,-0.0038453637695593764,0.00390431292980711,-0.00438840691727725
45.1,-0.014209043113255233,-0.0036868200441316397,0.0036997060587974015,-0.004390939036405904
45.2,-0.014000824818142002,-0.003529781986956447,0.0035078749342710045,-0.004386912400055834
45.300000000000004,-0.013784693981828949,-0.0033745528257123738,0.003328374057328384,-0.004376669778756126
45.400000000000006,-0.013561477540130254,-0.0032214166986444426,0.0031607560959260234,-0.004360549945048571
45.5,-0.013331980339895941,-0.0030706386465328504,0.0030045730901422855,-0.00433888703259099
45.6,-0.013096983848268115,-0.0029224646669028078,0.0028593775897251326,-0.004312009944458432
45.7,-0.012857244994875198,-0.0027771218282529975,0.002724723724767193,-0.004280241809488074
45.800000000000004,-0.012613495145613345,-0.002634818441702422,0.002600168210076122,-0.004243899485679463
45.900000000000006,-0.012366439207776789,-0.0024957442882208906,0.002485271285843759,-0.004203293108452126
46.0,-0.012116754862604833,-0.002360070897635035,0.0023795975937274286,-0.004158725683657396
46.1,-0.011865091923563048,-0.002227951877032772,0.002282716990779722,-0.004110492723255464
46.2,-0.01161207181719188,-0.0020995232854621516,0.0021942053025860073,-0.0040588819222304034
46.300000000000004,-0.01135828718297803,-0.0019749040517340268,0.0021136450170760874,-0.00400417287526494
46.400000000000006,-0.011104301588224192,-0.0018541964319934204,0.002040625920549733,-0.003946636831667503
46.5,-0.01085064935352888,-0.001737486503642944,0.0019747456775304644,-0.003886536487016456
46.6,-0.010597835484221278,-0.00162484469217526,0.0019156103561554193,-0.00382412580994839
46.7,-0.010346335703051688,-0.0015163263275661284,0.0018628349010369302,-0.0037596499024021056
46.800000000000004,-0.010096596578825568,-0.001411972226650176,0.0018160435552922586,-0.0036933448917936956
46.900000000000006,-0.009849035745541503,-0.0013118092979490998,0.0017748702335230702,-0.003625437853568393
47.0,-0.009604042206563234,-0.001215851165522547,0.0017389588476470032,-0.0035561467625249642
47.1,-0.009361976718468848,-0.001124098808587947,0.0017079635876788453,-0.0034856804712163386
47.2,-0.009123172248687776,-0.001036541213461365,0.0016815491592118367,-0.0034142387139607377
47.300000000000004,-0.008887934501146215,-0.0009531560345455226,0.0016593909794679813,-0.0033420121349502173
47.400000000000006,-0.008656542504460135,-0.0008739102613771247,0.001641175334019116,-0.0032691823388289105
47.5,-0.008429249256515992,-0.0007987608884472472,0.001626599495748156,-0.003195921962454136
47.6,-0.008206282420592263,-0.0007276555853566851,0.001615371808507408,-0.003122394766049428
47.7,-0.007987845066905369,-0.0006605333642291994,0.0016072117369368155,-0.003048755742575349
47.800000000000004,-0.007774116454324468,-0.0005973252418925236,0.0016018498844172125,-0.0029751512438604866
47.900000000000006,-0.007565252847148044,-0.0005379548945008387,0.0015990279811127952,-0.0029017191220716827
48.0,-0.00736138836172927,-0.0004823393022880845,0.0015984988438491716,-0.002828588885249231
48.1,-0.007162635838057178,-0.00043038938239708415,0.00160002630964152,-0.002755881865613539
48.2,-0.006969087731593908,-0.00038201060790470136,0.0016033851446482532,-0.002683711399395488
48.300000000000004,-0.0067808170208708335,-0.0003371036113384608,0.0016083609302917493,-0.002612183016983189
48.400000000000006,-0.006597878126559241,-0.0002955647711540006,0.0016147499282419837,-0.0025413946422258764
48.5,-0.006420307837858395,-0.0002572867797630723,0.0016223589258457882,-0.0024714367998219964
48.6,-0.006248126242270339,-0.0002221591918732964,0.0016310050635384137,-0.002402392829764033
48.7,-0.006081337655271647,-0.00019006895218756043,0.0016405156458840213,-0.0023343391077656588
48.800000000000004,-0.005919931546506633,-0.0001609009016024492,0.0016507279377549827,-0.00226734527069538
48.900000000000006,-0.005763883459360947,-0.00013453826120067257,0.0016614889471083041,-0.002201474446088117
49.0,-0.005613155921005621,-0.00011086309348121268,0.0016726551957659493,-0.002136783484852112
49.1,-0.00546769934023247,-8.975674041174992e-05,0.0016840924795527477,-0.0020733231963351514
49.2,-0.005327452890543528,-7.11002379750549e-05,0.00169567561902496,-0.0020111385849987265
49.300000000000004,-0.005192345376188895,-5.4774707013502744e-05,0.0017072882019739542,-0.0019502690879906986
49.400000000000006,-0.005062296079236983,-4.0661720393293056e-05,0.0017188223189804866,-0.0018907488128647196
49.5,-0.004937215585872144,-2.864364656099647e-05,0.0017301782931591866,-0.0018326067747876519
49.6,-0.004817006590317468,-1.8603969666130463e-05,0.0017412644051770108,-0.0017758671326197361
49.7,-0.0047015646749755495,-1.0427586514894225e-05,0.0017519966145791595,-0.0017205494232919488
49.800000000000004,-0.004590779065569134,-4.001080706031584e-06,0.0017622982784004895,-0.0016666687939470048
49.900000000000006,-0.004484533360211471,7.87025643089681e-07,0.0017720998679725418,-0.0016142362313591964
50.0,-0.004382706231515173,4.046042098121537e-06,0.0017813386847891316,-0.0015632587881834598
50.1,-0.004285172101062911,5.88290146516511e-06,0.0017899585762694002,-0.0015137398056056732
50.2,-0.00419180178568633,6.401972096983969e-06,0.0017979096521923885,-0.0014656791320106543
50.300000000000004,-0.0041024631151403606,5.704890297286202e-06,0.0018051480025246351,-0.0014190733373214222
50.400000000000006,-0.00401702152089717,3.8904121328440595e-06,0.0018116354173161675,-0.0013739159226955132
50.5,-0.003935340595908552,1.0542839316087298e-06,0.0018173391092917892,-0.001330197525297338
50.6,-0.0038572826253082237,-2.71086928343384e-06,0.0018222314397202128,-0.0012879061178958549
50.7,-0.003782709087976653,-7.315638106398313e-06,0.0018262896480158608,-0.0012470272031152843
50.800000000000004,-0.0037114811293466853,-1.2673906707531927e-05,0.001829495585673044,-0.0012075440020839245
50.900000000000006,-0.0036434600056332927,-1.8702915183256084e-05,0.0018318354549385154,-0.001169437637343414
51.0,-0.0035785074998423236,-2.5323307098156625e-05,0.001833299552632296,-0.0011326873098801316
51.1,-0.0035164863099871706,-3.2459163019646964e-05,0.0018338820194856022,-0.0010972704701664095
51.2,-0.003457260410012165,-4.003802084422717e-05,0.0018335805953283075,-0.0010631629831214717
51.300000000000004,-0.0034006953839530625,-4.799088369090858e-05,0.001832396380391552,-0.0010303392869425493
51.400000000000006,-0.0033466587339374427,-5.6252216138808846e-05,0.0018303336029722287,-0.0009987725457675954
51.5,-0.003295020162720459,-6.475992959933625e-05,0.0018273993937150082,-0.0009684347961258944
51.6,-0.0032456518314612865,-7.345535758017433e-05,0.0018236035667029984,-0.0009392970871708764
51.7,-0.0031984285934831655,-8.228322158195806e-05,0.0018189584075180311,-0.0009113296147067293
51.800000000000004,-0.003153228204791188,-9.11915883509258e-05,0.0018134784684013603,-0.0008845018490369884
51.900000000000006,-0.003109931512148599,-0.00010013181919090223,0.0018071803706183626,-0.0008587826566786785
52.0,-0.0030684226195337935,-0.00010905851201724737,0.0018000826141032127,-0.0008341404160001408
52.1,-0.0030285890338182676,-0.00011792943681368923,0.0017922053944355832,-0.0008105431268535131
52.2,-0.0029903217905181178,-0.00012670546512991946,0.0017835704271771883,-0.0007879585142850227
52.300000000000004,-0.0029535155604819715,-0.00013535049423485563,0.0017742007795738329,-0.0007663541264178161
52.400000000000006,-0.002918068738382574,-0.00014383136651576912,0.0017641207096083307,-0.0007456974266114744
52.5,-0.002883883513882991,-0.00015211778468976998,0.0017533555123691287,-0.0007259558800127209
52.6,-0.002850865926353444,-0.00016018222337302814,0.001741931373675372,-0.000707097034623092
52.7,-0.0028189259040534227,-0.00016799983755236717,0.00172987523083078,-0.0006890885970476645
52.800000000000004,-0.0027879772886449275,-0.00017554836845365732,0.0017172146404153383,-0.0006718985030636697
52.900000000000006,-0.002757937845900759,-0.0001828080472809919,0.0017039776529992013,-0.0006554949831603507
53.0,-0.002728729263318977,-0.00018976149719515767,0.001690192694802885,-0.0006398466231160288
53.1,-0.002700277135396679,-0.00019639363390954825,0.0016758884562571442,-0.0006249224197186814
53.2,-0.002672510937368732,-0.0002026915652975729,0.0016610937873341699,-0.0006106918317821263
53.300000000000004,-0.002645363988259402,-0.0002086444904155692,0.0016458375994679185,-0.0005971248266386641
53.400000000000006,-0.0026187734042443793,-0.00021424359841599718,0.0016301487737234402,-0.0005841919223784511
53.5,-0.0025926800430265268,-0.00021948196764242313,0.0016140560751125152,-0.0005718642259623075
53.6,-0.002567028439998944,-0.00022435446522857174,0.0015975880728661994,-0.0005601134673829017
53.7,-0.002541766736812833,-0.00022885764742498502,0.0015807730665757366,-0.0005489120299872685
53.800000000000004,-0.0025168466030810435,-0.00023298966093510476,0.0015636390180012413,-0.0005382329771371912
53.900000000000006,-0.0024922231519126825,-0.00023675014551463816,0.00154621348835181,-0.0005280500753784617
54.0,-0.0024678548498898666,-0.00024014013803344377,0.001528523580878106,-0.0005183378142652121
54.1,-0.0024437034220793096,-0.00024316197818398548,0.001510595888613278,-0.0005090714229859785
54.2,-0.002419733752674662,-0.0002458192160188352,0.0014924564470783913,-0.0005002268839473401
54.300000000000004,-0.0023959137818696627,-0.0002481165214982143,0.001474130691751251,-0.0004917809434781583
54.400000000000006,-0.0023722143996019007,-0.0002500595962479918,0.0014556434200523245,-0.0004837111198417565
54.5,-0.0023486093367029665,-0.00025165508766553373,0.0014370187576538398,-0.00047599570870892824
54.6,-0.0023250750539526577,-0.0002529105054873522,0.0014182801289253659,-0.00046861378623849054
54.7,-0.0023015906294619267,-0.00025383414089087274,0.001399450231362496,-0.00046154520988981923
54.800000000000004,-0.002278137644863547,-0.00025443498823405643,0.0013805510137963497,-0.0004547706171184239
54.900000000000006,-0.0022547000707617303,-0.0002547226695206939,0.0013616036581839443,-0.0004482714221019397
55.0,-0.002231264151812092,-0.0002547073616347234,0.0013426285648173142,-0.00044202981061928923
55.1,-0.0022078182918128693,-0.00025439972639379905,0.0013236453407727369,-0.00043602873321334137
55.2,-0.002184352939177962,-0.0002538108434685733,0.0013046727914135072,-0.0004302518967701109
55.300000000000004,-0.0021608604731437925,-0.0002529521462057121,0.001285728914760315,-0.00042468375464497485
55.400000000000006,-0.00213733509103176,-0.000251835360377144,0.001266830898550809,-0.0004193094954598963
55.5,-0.002113772696854684,-0.0002504724458622377,0.001247995119823543,-0.0004141150306856901
55.6,-0.002090170791533428,-0.00024887554126029095,0.0012292371468614635,-0.0004090869811217092
55.7,-0.002066528364968985,-0.00024705691142168807,0.001210571743336127,-0.0004042126623797737
55.800000000000004,-0.0020428457902020762,-0.00024502889788316793,0.001192012874494518,-0.00039948006947742817
55.900000000000006,-0.00201912471985189,-0.00024280387217280372,0.001173573715229658,-0.00039487786064412847
56.0,-0.00199536798506354,-0.00024039419197678,0.0011552666599227567,-0.0003903953404151505
56.1,-0.0019715794970659364,-0.00023781216009018696,0.0011371033338637676,-0.00038602244213435975
56.2,-0.0019477641515425357,-0.00023506998613780582,0.0011190946061491647,-0.0003817497099310461
56.300000000000004,-0.0019239277359447899,-0.00023217975101228502,0.0011012506039173224,-0.0003775682802577127
56.400000000000006,-0.0019000768398369516,-0.00022915337395907904,0.0010835807277815395,-0.00037346986307462487
56.5,-0.001876218768359058,-0.00022600258224110588,0.0010660936683312397,-0.00036944672275936137
56.6,-0.0018523614588932709,-0.0002227388833205069,0.0010487974235842176,-0.00036549165881117517
56.7,-0.0018285134010733789,-0.00021937353953073243,0.0010316993173202775,-0.00036159798639145817
56.800000000000004,-0.0018046835601335388,-0.00021591754513346562,0.0010148060181550452,-0.0003577595167824861
56.900000000000006,-0.0017808813036114047,-0.00021238160567225328,0.000998123559236219,-0.0003539705378319023
57.0,-0.0017571163314249918,-0.00020877611954197968,0.0009816573584595513,-0.0003502257944406772
57.1,-0.0017333986094048312,-0.0002051111617339784,0.0009654122391577091,-0.00034652046911849325
57.2,-0.0017097383062770477,-0.00020139646967099942,0.0009493924511677762,-0.00034285016265817026
57.300000000000004,-0.001686145734036825,-0.00019764143101923476,0.000933601692162958,-0.0003392108749917431
57.400000000000006,-0.001662631291685128,-0.00019385507338929244,0.0009180431291638875,-0.00033559898627235425
57.5,-0.0016392054123999732,-0.00019004605589892658,0.0009027194202194122,-0.00033201123818219955
57.6,-0.001615878513875454,-0.00018622266238040432,0.0008876327360424575,-0.00032844471558594375
57.7,-0.0015926609521096674,-0.00018239279633648522,0.0008727847817425374,-0.0003248968284394772
57.800000000000004,-0.001569562978364623,-0.00017856397742874335,0.0008581768184544802,-0.00032136529406489944
57.900000000000006,-0.0015465946992521292,-0.00017474333942264046,0.0008438096848148725,-0.0003178481198124934
58.0,-0.0015237660399529654,-0.00017093762954800682,0.0008296838182801693,-0.0003143435861053643
58.1,-0.0015010867104597524,-0.00016715320916912174,0.0008157992762163548,-0.00031085022989962624
58.2,-0.0014785661747549628,-0.00016339605567576915,0.0008021557567085528,-0.0003073668285822945
58.300000000000004,-0.001456213622845999,-0.00015967176551643885,0.0007887526190517885,-0.0003038923843209212
58.400000000000006,-0.001434037945575123,-0.00015598555829605493,0.0007755889038899181,-0.00030042610887564647
58.5,-0.0014120477121182177,-0.00015234228186211392,0.0007626633529708293,-0.00029696740888345734
58.6,-0.001390251150082129,-0.00014874641830366664,0.0007499744284900734,-0.0002935158716221252
58.7,-0.0013686561281079286,-0.00014520209078998275,0.0007375203319973212,-0.00029007125125996464
58.800000000000004,-0.0013472701408844343,-0.00014171307117660933,0.0007252990228439867,-0.0002866334555950187
58.900000000000006,-0.0013261002964616983,-0.00013828278830157266,0.0007133082361424322,-0.0002832025332922696
59.0,-0.0013051533057020462,-0.00013491433686765324,0.0007015455001817756,-0.00027977866164184825
59.1,-0.0012844354738208302,-0.00013161048687604037,0.0006900081533152644,-0.00027636213482051385
59.2,-0.0012639526939238863,-0.0001283736935522563,0.0006786933603160777,-0.0002729533526489844
59.300000000000004,-0.0012437104424416563,-0.00012520610770359753,0.000667598128188812,-0.0002695528098442463
59.400000000000006,-0.0012237137763579666,-0.00012210958644844468,0.0006567193214310026,-0.00026616108576115735
59.5,-0.0012039673321330095,-0.00011908570426097787,0.0006460536767375181,-0.000262778834619248
59.6,-0.001184475326220405,-0.00011613576427682939,0.0006355978171450762,-0.00025940677620781786
59.7,-0.001165241557078664,-0.00011326080980741914,0.0006253482656145336,-0.00025604568706262624
59.800000000000004,-0.0011462694085798589,-0.00011046163601432427,0.0006153014580502352,-0.000252696392106475
59.900000000000006,-0.001127561854692943,-0.00010773880168139208,0.000605453755742656,-0.0002493597567538492
